1900.76660,0.00626
1899.80223,0.00622
1898.83787,0.00617
1897.87350,0.00613
1896.90913,0.00609
1895.94477,0.00604
1894.98040,0.00600
1894.01603,0.00596
1893.05167,0.00591
1892.08730,0.00587
1891.12293,0.00583
1890.15857,0.00578
1889.19420,0.00574
1888.22983,0.00569
1887.26547,0.00565
1886.30110,0.00561
1885.33673,0.00556
1884.37237,0.00552
1883.40800,0.00548
1882.44364,0.00543
1881.47927,0.00539
1880.51490,0.00523
1879.55054,0.00503
1878.58617,0.00480
1877.62180,0.00460
1876.65744,0.00442
1875.69307,0.00423
1874.72870,0.00412
1873.76434,0.00414
1872.79997,0.00421
1871.83560,0.00417
1870.87124,0.00396
1869.90687,0.00368
1868.94250,0.00345
1867.97814,0.00341
1867.01377,0.00360
1866.04940,0.00397
1865.08504,0.00432
1864.12067,0.00446
1863.15630,0.00434
1862.19194,0.00406
1861.22757,0.00374
1860.26320,0.00346
1859.29884,0.00323
1858.33447,0.00312
1857.37010,0.00313
1856.40574,0.00321
1855.44137,0.00326
1854.47700,0.00330
1853.51264,0.00341
1852.54827,0.00352
1851.58390,0.00352
1850.61954,0.00349
1849.65517,0.00356
1848.69080,0.00346
1847.72644,0.00308
1846.76207,0.00276
1845.79770,0.00283
1844.83334,0.00313
1843.86897,0.00351
1842.90460,0.00394
1841.94024,0.00421
1840.97587,0.00392
1840.01150,0.00326
1839.04714,0.00274
1838.08277,0.00268
1837.11840,0.00287
1836.15404,0.00327
1835.18967,0.00374
1834.22530,0.00373
1833.26094,0.00318
1832.29657,0.00258
1831.33220,0.00243
1830.36784,0.00259
1829.40347,0.00265
1828.43910,0.00267
1827.47474,0.00276
1826.51037,0.00268
1825.54600,0.00240
1824.58164,0.00233
1823.61727,0.00273
1822.65290,0.00310
1821.68854,0.00308
1820.72417,0.00284
1819.75981,0.00270
1818.79544,0.00277
1817.83107,0.00290
1816.86671,0.00310
1815.90234,0.00334
1814.93797,0.00341
1813.97361,0.00331
1813.00924,0.00316
1812.04487,0.00310
1811.08051,0.00315
1810.11614,0.00330
1809.15177,0.00354
1808.18741,0.00377
1807.22304,0.00386
1806.25867,0.00379
1805.29431,0.00363
1804.32994,0.00347
1803.36557,0.00335
1802.40121,0.00337
1801.43684,0.00365
1800.47247,0.00402
1799.50811,0.00425
1798.54374,0.00441
1797.57937,0.00450
1796.61501,0.00432
1795.65064,0.00396
1794.68627,0.00386
1793.72191,0.00427
1792.75754,0.00481
1791.79317,0.00532
1790.82881,0.00591
1789.86444,0.00636
1788.90007,0.00631
1787.93571,0.00600
1786.97134,0.00599
1786.00697,0.00637
1785.04261,0.00673
1784.07824,0.00697
1783.11387,0.00722
1782.14951,0.00757
1781.18514,0.00795
1780.22077,0.00832
1779.25641,0.00879
1778.29204,0.00938
1777.32767,0.00981
1776.36331,0.00979
1775.39894,0.00951
1774.43457,0.00962
1773.47021,0.01033
1772.50584,0.01114
1771.54147,0.01184
1770.57711,0.01274
1769.61274,0.01379
1768.64837,0.01443
1767.68401,0.01473
1766.71964,0.01512
1765.75527,0.01543
1764.79091,0.01547
1763.82654,0.01555
1762.86217,0.01604
1761.89781,0.01676
1760.93344,0.01725
1759.96907,0.01761
1759.00471,0.01800
1758.04034,0.01841
1757.07597,0.01901
1756.11161,0.01974
1755.14724,0.02022
1754.18288,0.02029
1753.21851,0.02017
1752.25414,0.02010
1751.28978,0.02029
1750.32541,0.02097
1749.36104,0.02203
1748.39668,0.02298
1747.43231,0.02336
1746.46794,0.02344
1745.50358,0.02376
1744.53921,0.02407
1743.57484,0.02395
1742.61048,0.02383
1741.64611,0.02413
1740.68174,0.02472
1739.71738,0.02528
1738.75301,0.02537
1737.78864,0.02496
1736.82428,0.02431
1735.85991,0.02410
1734.89554,0.02451
1733.93118,0.02528
1732.96681,0.02618
1732.00244,0.02706
1731.03808,0.02732
1730.07371,0.02674
1729.10934,0.02609
1728.14498,0.02607
1727.18061,0.02619
1726.21624,0.02606
1725.25188,0.02593
1724.28751,0.02611
1723.32314,0.02641
1722.35878,0.02612
1721.39441,0.02521
1720.43004,0.02434
1719.46568,0.02397
1718.50131,0.02390
1717.53694,0.02417
1716.57258,0.02496
1715.60821,0.02590
1714.64384,0.02613
1713.67948,0.02570
1712.71511,0.02536
1711.75074,0.02535
1710.78638,0.02508
1709.82201,0.02453
1708.85764,0.02412
1707.89328,0.02397
1706.92891,0.02403
1705.96454,0.02454
1705.00018,0.02479
1704.03581,0.02409
1703.07144,0.02289
1702.10708,0.02245
1701.14271,0.02290
1700.17834,0.02326
1699.21398,0.02353
1698.24961,0.02430
1697.28524,0.02502
1696.32088,0.02499
1695.35651,0.02498
1694.39214,0.02582
1693.42778,0.02672
1692.46341,0.02658
1691.49905,0.02596
1690.53468,0.02587
1689.57031,0.02651
1688.60595,0.02649
1687.64158,0.02569
1686.67721,0.02507
1685.71285,0.02541
1684.74848,0.02626
1683.78411,0.02740
1682.81975,0.02895
1681.85538,0.03061
1680.89101,0.03143
1679.92665,0.03118
1678.96228,0.03058
1677.99791,0.03054
1677.03355,0.03102
1676.06918,0.03164
1675.10481,0.03233
1674.14045,0.03329
1673.17608,0.03416
1672.21171,0.03447
1671.24735,0.03460
1670.28298,0.03525
1669.31861,0.03654
1668.35425,0.03794
1667.38988,0.03899
1666.42551,0.03950
1665.46115,0.03961
1664.49678,0.03987
1663.53241,0.04062
1662.56805,0.04171
1661.60368,0.04283
1660.63931,0.04404
1659.67495,0.04513
1658.71058,0.04601
1657.74621,0.04614
1656.78185,0.04524
1655.81748,0.04424
1654.85311,0.04453
1653.88875,0.04628
1652.92438,0.04871
1651.96001,0.05133
1650.99565,0.05356
1650.03128,0.05430
1649.06691,0.05380
1648.10255,0.05369
1647.13818,0.05505
1646.17381,0.05714
1645.20945,0.05902
1644.24508,0.06054
1643.28071,0.06158
1642.31635,0.06220
1641.35198,0.06286
1640.38761,0.06373
1639.42325,0.06427
1638.45888,0.06457
1637.49451,0.06541
1636.53015,0.06711
1635.56578,0.06908
1634.60141,0.07107
1633.63705,0.07306
1632.67268,0.07458
1631.70831,0.07511
1630.74395,0.07530
1629.77958,0.07615
1628.81522,0.07772
1627.85085,0.07897
1626.88648,0.07991
1625.92212,0.08101
1624.95775,0.08238
1623.99338,0.08372
1623.02902,0.08511
1622.06465,0.08685
1621.10028,0.08813
1620.13592,0.08841
1619.17155,0.08849
1618.20718,0.08944
1617.24282,0.09107
1616.27845,0.09278
1615.31408,0.09459
1614.34972,0.09630
1613.38535,0.09722
1612.42098,0.09761
1611.45662,0.09821
1610.49225,0.09929
1609.52788,0.10032
1608.56352,0.10129
1607.59915,0.10230
1606.63478,0.10329
1605.67042,0.10422
1604.70605,0.10511
1603.74168,0.10594
1602.77732,0.10671
1601.81295,0.10750
1600.84858,0.10836
1599.88422,0.10918
1598.91985,0.10985
1597.95548,0.11041
1596.99112,0.11093
1596.02675,0.11146
1595.06238,0.11200
1594.09802,0.11252
1593.13365,0.11299
1592.16928,0.11336
1591.20492,0.11360
1590.24055,0.11376
1589.27618,0.11394
1588.31182,0.11411
1587.34745,0.11425
1586.38308,0.11435
1585.41872,0.11439
1584.45435,0.11436
1583.48998,0.11425
1582.52562,0.11412
1581.56125,0.11402
1580.59688,0.11344
1579.63252,0.11233
1578.66815,0.11136
1577.70378,0.11115
1576.73942,0.11138
1575.77505,0.11181
1574.81068,0.11239
1573.84632,0.11243
1572.88195,0.11129
1571.91758,0.10964
1570.95322,0.10868
1569.98885,0.10852
1569.02448,0.10837
1568.06012,0.10816
1567.09575,0.10792
1566.13139,0.10738
1565.16702,0.10666
1564.20265,0.10558
1563.23829,0.10398
1562.27392,0.10163
1561.30955,0.09954
1560.34519,0.09866
1559.38082,0.09917
1558.41645,0.10020
1557.45209,0.10116
1556.48772,0.10154
1555.52335,0.10110
1554.55899,0.09968
1553.59462,0.09821
1552.63025,0.09731
1551.66589,0.09689
1550.70152,0.09621
1549.73715,0.09518
1548.77279,0.09417
1547.80842,0.09341
1546.84405,0.09252
1545.87969,0.09135
1544.91532,0.09030
1543.95095,0.08929
1542.98659,0.08805
1542.02222,0.08680
1541.05785,0.08641
1540.09349,0.08686
1539.12912,0.08757
1538.16475,0.08779
1537.20039,0.08729
1536.23602,0.08606
1535.27165,0.08454
1534.30729,0.08350
1533.34292,0.08334
1532.37855,0.08337
1531.41419,0.08315
1530.44982,0.08242
1529.48545,0.08124
1528.52109,0.08019
1527.55672,0.07984
1526.59235,0.07982
1525.62799,0.07931
1524.66362,0.07819
1523.69925,0.07719
1522.73489,0.07692
1521.77052,0.07686
1520.80615,0.07660
1519.84179,0.07643
1518.87742,0.07639
1517.91305,0.07602
1516.94869,0.07526
1515.98432,0.07475
1515.01995,0.07479
1514.05559,0.07481
1513.09122,0.07435
1512.12685,0.07365
1511.16249,0.07281
1510.19812,0.07146
1509.23375,0.06996
1508.26939,0.06927
1507.30502,0.06968
1506.34065,0.07069
1505.37629,0.07177
1504.41192,0.07267
1503.44756,0.07275
1502.48319,0.07175
1501.51882,0.07061
1500.55446,0.06994
1499.59009,0.06953
1498.62572,0.06917
1497.66136,0.06919
1496.69699,0.06951
1495.73262,0.06978
1494.76826,0.06969
1493.80389,0.06920
1492.83952,0.06848
1491.87516,0.06786
1490.91079,0.06754
1489.94642,0.06768
1488.98206,0.06812
1488.01769,0.06863
1487.05332,0.06882
1486.08896,0.06861
1485.12459,0.06832
1484.16022,0.06811
1483.19586,0.06788
1482.23149,0.06776
1481.26712,0.06777
1480.30276,0.06761
1479.33839,0.06732
1478.37402,0.06717
1477.40966,0.06700
1476.44529,0.06653
1475.48092,0.06606
1474.51656,0.06610
1473.55219,0.06649
1472.58782,0.06684
1471.62346,0.06721
1470.65909,0.06784
1469.69472,0.06822
1468.73036,0.06772
1467.76599,0.06693
1466.80162,0.06664
1465.83726,0.06687
1464.87289,0.06723
1463.90852,0.06764
1462.94416,0.06810
1461.97979,0.06808
1461.01542,0.06714
1460.05106,0.06594
1459.08669,0.06546
1458.12232,0.06595
1457.15796,0.06689
1456.19359,0.06792
1455.22922,0.06879
1454.26486,0.06921
1453.30049,0.06905
1452.33612,0.06851
1451.37176,0.06805
1450.40739,0.06798
1449.44302,0.06815
1448.47866,0.06836
1447.51429,0.06858
1446.54992,0.06893
1445.58556,0.06936
1444.62119,0.06955
1443.65682,0.06951
1442.69246,0.06961
1441.72809,0.06986
1440.76373,0.06966
1439.79936,0.06910
1438.83499,0.06881
1437.87063,0.06908
1436.90626,0.06950
1435.94189,0.07005
1434.97753,0.07074
1434.01316,0.07112
1433.04879,0.07080
1432.08443,0.07036
1431.12006,0.07043
1430.15569,0.07092
1429.19133,0.07138
1428.22696,0.07173
1427.26259,0.07186
1426.29823,0.07180
1425.33386,0.07190
1424.36949,0.07222
1423.40513,0.07227
1422.44076,0.07206
1421.47639,0.07197
1420.51203,0.07218
1419.54766,0.07248
1418.58329,0.07300
1417.61893,0.07384
1416.65456,0.07458
1415.69019,0.07476
1414.72583,0.07464
1413.76146,0.07469
1412.79709,0.07500
1411.83273,0.07528
1410.86836,0.07561
1409.90399,0.07593
1408.93963,0.07606
1407.97526,0.07609
1407.01089,0.07622
1406.04653,0.07657
1405.08216,0.07707
1404.11779,0.07760
1403.15343,0.07800
1402.18906,0.07818
1401.22469,0.07826
1400.26033,0.07845
1399.29596,0.07871
1398.33159,0.07894
1397.36723,0.07926
1396.40286,0.07974
1395.43849,0.08021
1394.47413,0.08063
1393.50976,0.08122
1392.54539,0.08191
1391.58103,0.08221
1390.61666,0.08213
1389.65229,0.08213
1388.68793,0.08249
1387.72356,0.08301
1386.75919,0.08353
1385.79483,0.08418
1384.83046,0.08484
1383.86609,0.08531
1382.90173,0.08560
1381.93736,0.08587
1380.97299,0.08623
1380.00863,0.08655
1379.04426,0.08680
1378.07989,0.08695
1377.11553,0.08712
1376.15116,0.08746
1375.18680,0.08793
1374.22243,0.08851
1373.25806,0.08912
1372.29370,0.08969
1371.32933,0.09009
1370.36496,0.09034
1369.40060,0.09061
1368.43623,0.09098
1367.47186,0.09129
1366.50750,0.09145
1365.54313,0.09154
1364.57876,0.09169
1363.61440,0.09197
1362.65003,0.09245
1361.68566,0.09309
1360.72130,0.09376
1359.75693,0.09428
1358.79256,0.09459
1357.82820,0.09482
1356.86383,0.09511
1355.89946,0.09545
1354.93510,0.09582
1353.97073,0.09618
1353.00636,0.09651
1352.04200,0.09687
1351.07763,0.09721
1350.11326,0.09751
1349.14890,0.09784
1348.18453,0.09821
1347.22016,0.09860
1346.25580,0.09902
1345.29143,0.09945
1344.32706,0.09980
1343.36270,0.10001
1342.39833,0.10013
1341.43396,0.10032
1340.46960,0.10061
1339.50523,0.10102
1338.54086,0.10161
1337.57650,0.10225
1336.61213,0.10276
1335.64776,0.10307
1334.68340,0.10329
1333.71903,0.10349
1332.75466,0.10369
1331.79030,0.10396
1330.82593,0.10432
1329.86156,0.10475
1328.89720,0.10519
1327.93283,0.10560
1326.96846,0.10597
1326.00410,0.10631
1325.03973,0.10664
1324.07536,0.10698
1323.11100,0.10727
1322.14663,0.10756
1321.18226,0.10790
1320.21790,0.10829
1319.25353,0.10870
1318.28916,0.10912
1317.32480,0.10953
1316.36043,0.10987
1315.39606,0.11015
1314.43170,0.11046
1313.46733,0.11083
1312.50297,0.11124
1311.53860,0.11168
1310.57423,0.11212
1309.60987,0.11254
1308.64550,0.11289
1307.68113,0.11323
1306.71677,0.11358
1305.75240,0.11391
1304.78803,0.11418
1303.82367,0.11443
1302.85930,0.11475
1301.89493,0.11512
1300.93057,0.11547
1299.96620,0.11582
1299.00183,0.11622
1298.03747,0.11662
1297.07310,0.11699
1296.10873,0.11734
1295.14437,0.11768
1294.18000,0.11801
1293.21563,0.11831
1292.25127,0.11858
1291.28690,0.11886
1290.32253,0.11917
1289.35817,0.11951
1288.39380,0.11983
1287.42943,0.12010
1286.46507,0.12032
1285.50070,0.12053
1284.53633,0.12071
1283.57197,0.12091
1282.60760,0.12118
1281.64323,0.12150
1280.67887,0.12183
1279.71450,0.12214
1278.75013,0.12241
1277.78577,0.12263
1276.82140,0.12281
1275.85703,0.12294
1274.89267,0.12303
1273.92830,0.12311
1272.96393,0.12321
1271.99957,0.12335
1271.03520,0.12350
1270.07083,0.12362
1269.10647,0.12371
1268.14210,0.12375
1267.17773,0.12377
1266.21337,0.12381
1265.24900,0.12387
1264.28463,0.12391
1263.32027,0.12393
1262.35590,0.12394
1261.39153,0.12392
1260.42717,0.12384
1259.46280,0.12374
1258.49843,0.12367
1257.53407,0.12363
1256.56970,0.12359
1255.60533,0.12356
1254.64097,0.12350
1253.67660,0.12339
1252.71223,0.12320
1251.74787,0.12297
1250.78350,0.12276
1249.81914,0.12259
1248.85477,0.12249
1247.89040,0.12242
1246.92604,0.12233
1245.96167,0.12217
1244.99730,0.12195
1244.03294,0.12164
1243.06857,0.12127
1242.10420,0.12093
1241.13984,0.12068
1240.17547,0.12047
1239.21110,0.12024
1238.24674,0.11999
1237.28237,0.11973
1236.31800,0.11944
1235.35364,0.11909
1234.38927,0.11870
1233.42490,0.11831
1232.46054,0.11789
1231.49617,0.11742
1230.53180,0.11694
1229.56744,0.11646
1228.60307,0.11598
1227.63870,0.11548
1226.67434,0.11498
1225.70997,0.11453
1224.74560,0.11412
1223.78124,0.11373
1222.81687,0.11331
1221.85250,0.11281
1220.88814,0.11227
1219.92377,0.11175
1218.95940,0.11130
1217.99504,0.11092
1217.03067,0.11057
1216.06630,0.11021
1215.10194,0.10977
1214.13757,0.10923
1213.17320,0.10867
1212.20884,0.10817
1211.24447,0.10770
1210.28010,0.10723
1209.31574,0.10679
1208.35137,0.10638
1207.38700,0.10594
1206.42264,0.10547
1205.45827,0.10500
1204.49390,0.10454
1203.52954,0.10405
1202.56517,0.10353
1201.60080,0.10303
1200.63644,0.10256
1199.67207,0.10212
1198.70770,0.10171
1197.74334,0.10132
1196.77897,0.10095
1195.81460,0.10055
1194.85024,0.10011
1193.88587,0.09962
1192.92150,0.09912
1191.95714,0.09861
1190.99277,0.09810
1190.02840,0.09764
1189.06404,0.09725
1188.09967,0.09686
1187.13531,0.09640
1186.17094,0.09592
1185.20657,0.09545
1184.24221,0.09497
1183.27784,0.09447
1182.31347,0.09405
1181.34911,0.09373
1180.38474,0.09344
1179.42037,0.09311
1178.45601,0.09273
1177.49164,0.09229
1176.52727,0.09179
1175.56291,0.09125
1174.59854,0.09067
1173.63417,0.09015
1172.66981,0.08974
1171.70544,0.08940
1170.74107,0.08905
1169.77671,0.08867
1168.81234,0.08831
1167.84797,0.08794
1166.88361,0.08750
1165.91924,0.08699
1164.95487,0.08647
1163.99051,0.08600
1163.02614,0.08557
1162.06177,0.08519
1161.09741,0.08484
1160.13304,0.08447
1159.16867,0.08400
1158.20431,0.08344
1157.23994,0.08289
1156.27557,0.08240
1155.31121,0.08197
1154.34684,0.08159
1153.38247,0.08124
1152.41811,0.08087
1151.45374,0.08048
1150.48937,0.08005
1149.52501,0.07961
1148.56064,0.07916
1147.59627,0.07869
1146.63191,0.07821
1145.66754,0.07773
1144.70317,0.07731
1143.73881,0.07692
1142.77444,0.07653
1141.81007,0.07611
1140.84571,0.07567
1139.88134,0.07517
1138.91697,0.07459
1137.95261,0.07396
1136.98824,0.07336
1136.02387,0.07282
1135.05951,0.07236
1134.09514,0.07196
1133.13077,0.07158
1132.16641,0.07119
1131.20204,0.07082
1130.23767,0.07049
1129.27331,0.07017
1128.30894,0.06977
1127.34457,0.06927
1126.38021,0.06868
1125.41584,0.06805
1124.45148,0.06744
1123.48711,0.06695
1122.52274,0.06659
1121.55838,0.06630
1120.59401,0.06596
1119.62964,0.06554
1118.66528,0.06506
1117.70091,0.06457
1116.73654,0.06410
1115.77218,0.06369
1114.80781,0.06332
1113.84344,0.06293
1112.87908,0.06251
1111.91471,0.06207
1110.95034,0.06160
1109.98598,0.06110
1109.02161,0.06057
1108.05724,0.06005
1107.09288,0.05955
1106.12851,0.05907
1105.16414,0.05862
1104.19978,0.05822
1103.23541,0.05788
1102.27104,0.05754
1101.30668,0.05716
1100.34231,0.05673
1099.37794,0.05625
1098.41358,0.05575
1097.44921,0.05529
1096.48484,0.05491
1095.52048,0.05460
1094.55611,0.05425
1093.59174,0.05377
1092.62738,0.05321
1091.66301,0.05264
1090.69864,0.05211
1089.73428,0.05164
1088.76991,0.05123
1087.80554,0.05081
1086.84118,0.05035
1085.87681,0.04989
1084.91244,0.04948
1083.94808,0.04913
1082.98371,0.04878
1082.01934,0.04834
1081.05498,0.04782
1080.09061,0.04726
1079.12624,0.04676
1078.16188,0.04633
1077.19751,0.04590
1076.23314,0.04537
1075.26878,0.04477
1074.30441,0.04421
1073.34004,0.04373
1072.37568,0.04332
1071.41131,0.04303
1070.44694,0.04281
1069.48258,0.04254
1068.51821,0.04217
1067.55384,0.04176
1066.58948,0.04132
1065.62511,0.04084
1064.66074,0.04040
1063.69638,0.04008
1062.73201,0.03980
1061.76765,0.03940
1060.80328,0.03886
1059.83891,0.03823
1058.87455,0.03760
1057.91018,0.03706
1056.94581,0.03672
1055.98145,0.03654
1055.01708,0.03638
1054.05271,0.03616
1053.08835,0.03588
1052.12398,0.03555
1051.15961,0.03518
1050.19525,0.03474
1049.23088,0.03422
1048.26651,0.03365
1047.30215,0.03314
1046.33778,0.03275
1045.37341,0.03248
1044.40905,0.03222
1043.44468,0.03190
1042.48031,0.03150
1041.51595,0.03104
1040.55158,0.03062
1039.58721,0.03027
1038.62285,0.03002
1037.65848,0.02983
1036.69411,0.02961
1035.72975,0.02929
1034.76538,0.02895
1033.80101,0.02863
1032.83665,0.02827
1031.87228,0.02785
1030.90791,0.02737
1029.94355,0.02684
1028.97918,0.02630
1028.01481,0.02584
1027.05045,0.02550
1026.08608,0.02530
1025.12171,0.02515
1024.15735,0.02494
1023.19298,0.02464
1022.22861,0.02429
1021.26425,0.02394
1020.29988,0.02357
1019.33551,0.02318
1018.37115,0.02279
1017.40678,0.02243
1016.44241,0.02207
1015.47805,0.02177
1014.51368,0.02154
1013.54931,0.02131
1012.58495,0.02104
1011.62058,0.02075
1010.65621,0.02049
1009.69185,0.02027
1008.72748,0.02004
1007.76311,0.01980
1006.79875,0.01956
1005.83438,0.01929
1004.87001,0.01897
1003.90565,0.01865
1002.94128,0.01838
1001.97691,0.01813
1001.01255,0.01787
1000.04818,0.01759
999.08382,0.01735
998.11945,0.01716
997.15508,0.01696
996.19072,0.01674
995.22635,0.01654
994.26198,0.01636
993.29762,0.01615
992.33325,0.01589
991.36888,0.01565
990.40452,0.01542
989.44015,0.01515
988.47578,0.01485
987.51142,0.01461
986.54705,0.01439
985.58268,0.01412
984.61832,0.01378
983.65395,0.01341
982.68958,0.01304
981.72522,0.01272
980.76085,0.01250
979.79648,0.01237
978.83212,0.01228
977.86775,0.01217
976.90338,0.01203
975.93902,0.01181
974.97465,0.01150
974.01028,0.01117
973.04592,0.01086
972.08155,0.01059
971.11718,0.01036
970.15282,0.01016
969.18845,0.00999
968.22408,0.00980
967.25972,0.00958
966.29535,0.00935
965.33098,0.00915
964.36662,0.00899
963.40225,0.00883
962.43788,0.00861
961.47352,0.00836
960.50915,0.00814
959.54478,0.00796
958.58042,0.00778
957.61605,0.00759
956.65168,0.00740
955.68732,0.00722
954.72295,0.00709
953.75858,0.00701
952.79422,0.00698
951.82985,0.00694
950.86548,0.00685
949.90112,0.00671
948.93675,0.00651
947.97238,0.00632
947.00802,0.00618
946.04365,0.00609
945.07928,0.00601
944.11492,0.00593
943.15055,0.00587
942.18618,0.00582
941.22182,0.00579
940.25745,0.00576
939.29308,0.00578
938.32872,0.00584
937.36435,0.00590
936.39998,0.00595
935.43562,0.00599
934.47125,0.00603
933.50689,0.00608
932.54252,0.00619
931.57815,0.00628
930.61379,0.00632
929.64942,0.00633
928.68505,0.00636
927.72069,0.00639
926.75632,0.00648
925.79195,0.00668
924.82759,0.00696
923.86322,0.00721
922.89885,0.00735
921.93449,0.00739
920.97012,0.00739
920.00575,0.00741
919.04139,0.00751
918.07702,0.00769
917.11265,0.00790
916.14829,0.00805
915.18392,0.00810
914.21955,0.00808
913.25519,0.00806
912.29082,0.00815
911.32645,0.00837
910.36209,0.00864
909.39772,0.00886
908.43335,0.00899
907.46899,0.00902
906.50462,0.00903
905.54025,0.00907
904.57589,0.00924
903.61152,0.00951
902.64715,0.00980
901.68279,0.01004
900.71842,0.01019
899.75405,0.01026
898.78969,0.01029
897.82532,0.01035
896.86095,0.01046
895.89659,0.01064
894.93222,0.01087
893.96785,0.01109
893.00349,0.01126
892.03912,0.01138
891.07475,0.01147
890.11039,0.01148
889.14602,0.01146
888.18165,0.01145
887.21729,0.01148
886.25292,0.01150
885.28855,0.01152
884.32419,0.01149
883.35982,0.01141
882.39545,0.01133
881.43109,0.01128
880.46672,0.01123
879.50235,0.01114
878.53799,0.01105
877.57362,0.01093
876.60925,0.01072
875.64489,0.01045
874.68052,0.01022
873.71615,0.01001
872.75179,0.00976
871.78742,0.00950
870.82306,0.00926
869.85869,0.00903
868.89432,0.00883
867.92996,0.00869
866.96559,0.00860
866.00122,0.00850
865.03686,0.00840
864.07249,0.00836
863.10812,0.00835
862.14376,0.00833
861.17939,0.00834
860.21502,0.00841
859.25066,0.00850
858.28629,0.00855
857.32192,0.00857
856.35756,0.00863
855.39319,0.00872
854.42882,0.00882
853.46446,0.00893
852.50009,0.00905
851.53572,0.00920
850.57136,0.00936
849.60699,0.00951
848.64262,0.00962
847.67826,0.00969
846.71389,0.00971
845.74952,0.00970
844.78516,0.00972
843.82079,0.00982
842.85642,0.00997
841.89206,0.01012
840.92769,0.01018
839.96332,0.01015
838.99896,0.01012
838.03459,0.01015
837.07022,0.01018
836.10586,0.01015
835.14149,0.01009
834.17712,0.01000
833.21276,0.00984
832.24839,0.00969
831.28402,0.00966
830.31966,0.00966
829.35529,0.00952
828.39092,0.00928
827.42656,0.00908
826.46219,0.00899
825.49782,0.00897
824.53346,0.00898
823.56909,0.00900
822.60472,0.00897
821.64036,0.00884
820.67599,0.00872
819.71162,0.00872
818.74726,0.00874
817.78289,0.00866
816.81852,0.00846
815.85416,0.00824
814.88979,0.00804
813.92542,0.00793
812.96106,0.00796
811.99669,0.00804
811.03232,0.00806
810.06796,0.00800
809.10359,0.00790
808.13923,0.00772
807.17486,0.00746
806.21049,0.00724
805.24613,0.00709
804.28176,0.00701
803.31739,0.00703
802.35303,0.00713
801.38866,0.00715
800.42429,0.00704
799.45993,0.00685
798.49556,0.00664
797.53119,0.00651
796.56683,0.00649
795.60246,0.00653
794.63809,0.00652
793.67373,0.00645
792.70936,0.00632
791.74499,0.00617
790.78063,0.00609
789.81626,0.00616
788.85189,0.00627
787.88753,0.00637
786.92316,0.00648
785.95879,0.00654
784.99443,0.00646
784.03006,0.00632
783.06569,0.00628
782.10133,0.00632
781.13696,0.00633
780.17259,0.00635
779.20823,0.00642
778.24386,0.00646
777.27949,0.00633
776.31513,0.00612
775.35076,0.00597
774.38639,0.00591
773.42203,0.00591
772.45766,0.00593
771.49329,0.00603
770.52893,0.00619
769.56456,0.00628
768.60019,0.00623
767.63583,0.00611
766.67146,0.00602
765.70709,0.00590
764.74273,0.00571
763.77836,0.00556
762.81399,0.00553
761.84963,0.00552
760.88526,0.00547
759.92089,0.00547
758.95653,0.00557
757.99216,0.00568
757.02779,0.00566
756.06343,0.00555
755.09906,0.00543
754.13469,0.00531
753.17033,0.00519
752.20596,0.00506
751.24159,0.00492
750.27723,0.00478
749.31286,0.00459
748.34849,0.00438
747.38413,0.00420
746.41976,0.00414
745.45540,0.00415
744.49103,0.00407
743.52666,0.00386
742.56230,0.00361
741.59793,0.00347
740.63356,0.00343
739.66920,0.00345
738.70483,0.00350
737.74046,0.00357
736.77610,0.00356
735.81173,0.00340
734.84736,0.00318
733.88300,0.00301
732.91863,0.00283
731.95426,0.00257
730.98990,0.00230
730.02553,0.00211
729.06116,0.00200
728.09680,0.00191
727.13243,0.00184
726.16806,0.00179
725.20370,0.00171
724.23933,0.00159
723.27496,0.00147
722.31060,0.00142
721.34623,0.00139
720.38186,0.00133
719.41750,0.00128
718.45313,0.00130
717.48876,0.00141
716.52440,0.00151
715.56003,0.00152
714.59566,0.00142
713.63130,0.00129
712.66693,0.00119
711.70256,0.00109
710.73820,0.00104
709.77383,0.00108
708.80946,0.00119
707.84510,0.00131
706.88073,0.00143
705.91636,0.00158
704.95200,0.00167
703.98763,0.00163
703.02326,0.00149
702.05890,0.00135
701.09453,0.00125
700.13016,0.00123
699.16580,0.00133
698.20143,0.00151
697.23706,0.00170
696.27270,0.00187
695.30833,0.00205
694.34396,0.00220
693.37960,0.00229
692.41523,0.00231
691.45086,0.00225
690.48650,0.00209
689.52213,0.00185
688.55776,0.00162
687.59340,0.00149
686.62903,0.00152
685.66466,0.00175
684.70030,0.00205
683.73593,0.00231
682.77157,0.00242
681.80720,0.00235
680.84283,0.00210
679.87847,0.00180
678.91410,0.00163
677.94973,0.00166
676.98537,0.00188
676.02100,0.00225
675.05663,0.00266
674.09227,0.00303
673.12790,0.00326
672.16353,0.00300
671.19917,0.00240
670.23480,0.00192
669.27043,0.00196
668.30607,0.00227
667.34170,0.00278
666.37733,0.00349
665.41297,0.00413
664.44860,0.00419
663.48423,0.00389
662.51987,0.00368
661.55550,0.00373
660.59113,0.00375
659.62677,0.00383
658.66240,0.00393
657.69803,0.00388
656.73367,0.00372
655.76930,0.00362
654.80493,0.00365
653.84057,0.00380
652.87620,0.00410
651.91183,0.00450
650.94747,0.00484
649.98310,0.00505
649.01873,0.00522
648.05437,0.00542
647.09000,0.00563
646.12563,0.00588
645.16127,0.00618
644.19690,0.00647
643.23253,0.00670
642.26817,0.00691
641.30380,0.00712
640.33943,0.00724
639.37507,0.00728
638.41070,0.00734
637.44633,0.00742
636.48197,0.00743
635.51760,0.00746
634.55323,0.00761
633.58887,0.00788
632.62450,0.00819
631.66013,0.00849
630.69577,0.00878
629.73140,0.00900
628.76703,0.00916
627.80267,0.00934
626.83830,0.00960
625.87393,0.00987
624.90957,0.01014
623.94520,0.01039
622.98083,0.01056
622.01647,0.01061
621.05210,0.01058
620.08774,0.01062
619.12337,0.01080
618.15900,0.01106
617.19464,0.01131
616.23027,0.01149
615.26590,0.01153
614.30154,0.01141
613.33717,0.01121
612.37280,0.01113
611.40844,0.01129
610.44407,0.01160
609.47970,0.01188
608.51534,0.01210
607.55097,0.01220
606.58660,0.01214
605.62224,0.01206
604.65787,0.01217
603.69350,0.01236
602.72914,0.01247
601.76477,0.01254
600.80040,0.01266
599.83604,0.01271
598.87167,0.01254
597.90730,0.01233
596.94294,0.01225
595.97857,0.01216
595.01420,0.01200
594.04984,0.01193
593.08547,0.01204
592.12110,0.01222
591.15674,0.01237
590.19237,0.01255
589.22800,0.01274
588.26364,0.01294
587.29927,0.01313
586.33490,0.01329
585.37054,0.01339
584.40617,0.01339
583.44180,0.01329
582.47744,0.01314
581.51307,0.01293
580.54870,0.01267
579.58434,0.01240
578.61997,0.01225
577.65560,0.01225
576.69124,0.01232
575.72687,0.01243
574.76250,0.01260
573.79814,0.01277
572.83377,0.01277
571.86940,0.01266
570.90504,0.01270
569.94067,0.01294
568.97630,0.01316
568.01194,0.01330
567.04757,0.01339
566.08320,0.01334
565.11884,0.01307
564.15447,0.01274
563.19010,0.01258
562.22574,0.01259
561.26137,0.01264
560.29700,0.01269
559.33264,0.01274
558.36827,0.01279
557.40390,0.01283
556.43954,0.01289
555.47517,0.01298
554.51081,0.01305
553.54644,0.01306
552.58207,0.01312
551.61771,0.01339
550.65334,0.01375
549.68897,0.01392
548.72461,0.01392
547.76024,0.01393
546.79587,0.01386
545.83151,0.01364
544.86714,0.01359
543.90277,0.01380
542.93841,0.01402
541.97404,0.01413
541.00967,0.01428
540.04531,0.01449
539.08094,0.01446
538.11657,0.01412
537.15221,0.01374
536.18784,0.01362
535.22347,0.01376
534.25911,0.01396
533.29474,0.01422
532.33037,0.01462
531.36601,0.01492
530.40164,0.01488
529.43727,0.01470
528.47291,0.01472
527.50854,0.01472
526.54417,0.01439
525.57981,0.01401
524.61544,0.01386
523.65107,0.01377
522.68671,0.01360
521.72234,0.01350
520.75797,0.01359
519.79361,0.01367
518.82924,0.01367
517.86487,0.01379
516.90051,0.01415
515.93614,0.01462
514.97177,0.01508
514.00741,0.01540
513.04304,0.01558
512.07867,0.01564
511.11431,0.01555
510.14994,0.01536
509.18557,0.01526
508.22121,0.01527
507.25684,0.01510
506.29247,0.01456
505.32811,0.01396
504.36374,0.01372
503.39937,0.01387
502.43501,0.01430
501.47064,0.01497
500.50627,0.01563
499.54191,0.01581
498.57754,0.01548
497.61317,0.01502
496.64881,0.01463
495.68444,0.01425
494.72007,0.01391
493.75571,0.01368
492.79134,0.01359
491.82698,0.01371
490.86261,0.01409
489.89824,0.01461
488.93388,0.01509
487.96951,0.01541
487.00514,0.01549
486.04078,0.01531
485.07641,0.01505
484.11204,0.01501
483.14768,0.01541
482.18331,0.01593
481.21894,0.01594
480.25458,0.01537
479.29021,0.01464
478.32584,0.01388
477.36148,0.01314
476.39711,0.01294
475.43274,0.01359
474.46838,0.01441
473.50401,0.01462
472.53964,0.01452
471.57528,0.01472
470.61091,0.01508
469.64654,0.01511
468.68218,0.01486
467.71781,0.01466
466.75344,0.01459
465.78908,0.01458
464.82471,0.01455
463.86034,0.01454
462.89598,0.01459
461.93161,0.01435
460.96724,0.01366
460.00288,0.01314
459.03851,0.01343
458.07414,0.01418
457.10978,0.01453
456.14541,0.01416
455.18104,0.01337
454.21668,0.01263
453.25231,0.01233
452.28794,0.01265
451.32358,0.01350
450.35921,0.01449
449.39484,0.01516
448.43048,0.01524
447.46611,0.01490
446.50174,0.01462
445.53738,0.01449
444.57301,0.01422
443.60864,0.01377
442.64428,0.01361
441.67991,0.01412
440.71554,0.01505
439.75118,0.01573
438.78681,0.01564
437.82244,0.01486
436.85808,0.01391
435.89371,0.01302
434.92934,0.01224
433.96498,0.01185
433.00061,0.01215
432.03624,0.01278
431.07188,0.01304
430.10751,0.01310
429.14315,0.01351
428.17878,0.01390
427.21441,0.01371
426.25005,0.01334
425.28568,0.01318
424.32131,0.01231
423.35695,0.01053
422.39258,0.00897
421.42821,0.00836
420.46385,0.00817
419.49948,0.00861
418.53511,0.00990
417.57075,0.01089
416.60638,0.01062
415.64201,0.00974
414.67765,0.00875
413.71328,0.00761
412.74891,0.00709
411.78455,0.00837
410.82018,0.01057
409.85581,0.01162
408.89145,0.01063
407.92708,0.00851
406.96271,0.00659
405.99835,0.00585
405.03398,0.00697
404.06961,0.00946
403.10525,0.01134
402.14088,0.01186
401.17651,0.01167
400.21215,0.01167
399.24778,0.01167
