1900.76660,0.00100
1899.80223,0.00097
1898.83787,0.00093
1897.87350,0.00090
1896.90913,0.00086
1895.94477,0.00083
1894.98040,0.00079
1894.01603,0.00076
1893.05167,0.00072
1892.08730,0.00069
1891.12293,0.00066
1890.15857,0.00062
1889.19420,0.00059
1888.22983,0.00055
1887.26547,0.00052
1886.30110,0.00048
1885.33673,0.00045
1884.37237,0.00041
1883.40800,0.00038
1882.44364,0.00034
1881.47927,0.00031
1880.51490,0.00043
1879.55054,0.00039
1878.58617,0.00032
1877.62180,0.00033
1876.65744,0.00034
1875.69307,0.00036
1874.72870,0.00046
1873.76434,0.00059
1872.79997,0.00059
1871.83560,0.00044
1870.87124,0.00026
1869.90687,0.00011
1868.94250,0.00006
1867.97814,0.00017
1867.01377,0.00037
1866.04940,0.00052
1865.08504,0.00065
1864.12067,0.00083
1863.15630,0.00095
1862.19194,0.00094
1861.22757,0.00093
1860.26320,0.00106
1859.29884,0.00114
1858.33447,0.00098
1857.37010,0.00074
1856.40574,0.00071
1855.44137,0.00088
1854.47700,0.00108
1853.51264,0.00125
1852.54827,0.00145
1851.58390,0.00175
1850.61954,0.00202
1849.65517,0.00207
1848.69080,0.00195
1847.72644,0.00189
1846.76207,0.00211
1845.79770,0.00247
1844.83334,0.00272
1843.86897,0.00281
1842.90460,0.00294
1841.94024,0.00321
1840.97587,0.00349
1840.01150,0.00370
1839.04714,0.00386
1838.08277,0.00393
1837.11840,0.00400
1836.15404,0.00423
1835.18967,0.00457
1834.22530,0.00477
1833.26094,0.00487
1832.29657,0.00505
1831.33220,0.00533
1830.36784,0.00560
1829.40347,0.00585
1828.43910,0.00612
1827.47474,0.00637
1826.51037,0.00652
1825.54600,0.00656
1824.58164,0.00656
1823.61727,0.00669
1822.65290,0.00699
1821.68854,0.00739
1820.72417,0.00772
1819.75981,0.00793
1818.79544,0.00801
1817.83107,0.00805
1816.86671,0.00817
1815.90234,0.00833
1814.93797,0.00846
1813.97361,0.00860
1813.00924,0.00884
1812.04487,0.00910
1811.08051,0.00921
1810.11614,0.00919
1809.15177,0.00919
1808.18741,0.00930
1807.22304,0.00942
1806.25867,0.00949
1805.29431,0.00957
1804.32994,0.00978
1803.36557,0.01000
1802.40121,0.01009
1801.43684,0.01009
1800.47247,0.01020
1799.50811,0.01051
1798.54374,0.01085
1797.57937,0.01107
1796.61501,0.01120
1795.65064,0.01137
1794.68627,0.01162
1793.72191,0.01187
1792.75754,0.01207
1791.79317,0.01227
1790.82881,0.01257
1789.86444,0.01302
1788.90007,0.01357
1787.93571,0.01412
1786.97134,0.01456
1786.00697,0.01494
1785.04261,0.01539
1784.07824,0.01596
1783.11387,0.01659
1782.14951,0.01714
1781.18514,0.01759
1780.22077,0.01807
1779.25641,0.01870
1778.29204,0.01941
1777.32767,0.02008
1776.36331,0.02069
1775.39894,0.02136
1774.43457,0.02215
1773.47021,0.02298
1772.50584,0.02385
1771.54147,0.02476
1770.57711,0.02574
1769.61274,0.02670
1768.64837,0.02765
1767.68401,0.02863
1766.71964,0.02962
1765.75527,0.03057
1764.79091,0.03148
1763.82654,0.03239
1762.86217,0.03327
1761.89781,0.03418
1760.93344,0.03517
1759.96907,0.03618
1759.00471,0.03719
1758.04034,0.03820
1757.07597,0.03923
1756.11161,0.04021
1755.14724,0.04116
1754.18288,0.04210
1753.21851,0.04301
1752.25414,0.04384
1751.28978,0.04458
1750.32541,0.04529
1749.36104,0.04601
1748.39668,0.04681
1747.43231,0.04769
1746.46794,0.04856
1745.50358,0.04932
1744.53921,0.04995
1743.57484,0.05057
1742.61048,0.05125
1741.64611,0.05193
1740.68174,0.05248
1739.71738,0.05297
1738.75301,0.05351
1737.78864,0.05399
1736.82428,0.05441
1735.85991,0.05465
1734.89554,0.05463
1733.93118,0.05435
1732.96681,0.05429
1732.00244,0.05453
1731.03808,0.05472
1730.07371,0.05466
1729.10934,0.05449
1728.14498,0.05438
1727.18061,0.05427
1726.21624,0.05413
1725.25188,0.05389
1724.28751,0.05352
1723.32314,0.05309
1722.35878,0.05270
1721.39441,0.05236
1720.43004,0.05200
1719.46568,0.05143
1718.50131,0.05059
1717.53694,0.04972
1716.57258,0.04912
1715.60821,0.04860
1714.64384,0.04800
1713.67948,0.04741
1712.71511,0.04693
1711.75074,0.04634
1710.78638,0.04561
1709.82201,0.04490
1708.85764,0.04424
1707.89328,0.04356
1706.92891,0.04283
1705.96454,0.04211
1705.00018,0.04131
1704.03581,0.04048
1703.07144,0.03998
1702.10708,0.03957
1701.14271,0.03874
1700.17834,0.03736
1699.21398,0.03637
1698.24961,0.03606
1697.28524,0.03590
1696.32088,0.03532
1695.35651,0.03450
1694.39214,0.03390
1693.42778,0.03351
1692.46341,0.03316
1691.49905,0.03272
1690.53468,0.03225
1689.57031,0.03174
1688.60595,0.03123
1687.64158,0.03090
1686.67721,0.03075
1685.71285,0.03050
1684.74848,0.02988
1683.78411,0.02922
1682.81975,0.02903
1681.85538,0.02921
1680.89101,0.02935
1679.92665,0.02935
1678.96228,0.02934
1677.99791,0.02935
1677.03355,0.02937
1676.06918,0.02936
1675.10481,0.02934
1674.14045,0.02944
1673.17608,0.02963
1672.21171,0.02987
1671.24735,0.03009
1670.28298,0.03032
1669.31861,0.03054
1668.35425,0.03090
1667.38988,0.03145
1666.42551,0.03205
1665.46115,0.03260
1664.49678,0.03306
1663.53241,0.03346
1662.56805,0.03387
1661.60368,0.03446
1660.63931,0.03521
1659.67495,0.03597
1658.71058,0.03670
1657.74621,0.03741
1656.78185,0.03810
1655.81748,0.03871
1654.85311,0.03932
1653.88875,0.04007
1652.92438,0.04101
1651.96001,0.04207
1650.99565,0.04309
1650.03128,0.04405
1649.06691,0.04490
1648.10255,0.04578
1647.13818,0.04682
1646.17381,0.04813
1645.20945,0.04957
1644.24508,0.05095
1643.28071,0.05225
1642.31635,0.05350
1641.35198,0.05478
1640.38761,0.05608
1639.42325,0.05733
1638.45888,0.05857
1637.49451,0.05984
1636.53015,0.06128
1635.56578,0.06282
1634.60141,0.06444
1633.63705,0.06598
1632.67268,0.06746
1631.70831,0.06885
1630.74395,0.07019
1629.77958,0.07147
1628.81522,0.07268
1627.85085,0.07388
1626.88648,0.07508
1625.92212,0.07620
1624.95775,0.07701
1623.99338,0.07756
1623.02902,0.07816
1622.06465,0.07893
1621.10028,0.07961
1620.13592,0.08003
1619.17155,0.08037
1618.20718,0.08058
1617.24282,0.08045
1616.27845,0.07997
1615.31408,0.07964
1614.34972,0.07951
1613.38535,0.07935
1612.42098,0.07906
1611.45662,0.07869
1610.49225,0.07824
1609.52788,0.07770
1608.56352,0.07721
1607.59915,0.07677
1606.63478,0.07638
1605.67042,0.07610
1604.70605,0.07591
1603.74168,0.07570
1602.77732,0.07543
1601.81295,0.07521
1600.84858,0.07506
1599.88422,0.07498
1598.91985,0.07493
1597.95548,0.07490
1596.99112,0.07489
1596.02675,0.07487
1595.06238,0.07488
1594.09802,0.07492
1593.13365,0.07505
1592.16928,0.07515
1591.20492,0.07512
1590.24055,0.07503
1589.27618,0.07495
1588.31182,0.07494
1587.34745,0.07495
1586.38308,0.07492
1585.41872,0.07480
1584.45435,0.07460
1583.48998,0.07434
1582.52562,0.07397
1581.56125,0.07348
1580.59688,0.07291
1579.63252,0.07235
1578.66815,0.07191
1577.70378,0.07133
1576.73942,0.07039
1575.77505,0.06918
1574.81068,0.06830
1573.84632,0.06763
1572.88195,0.06691
1571.91758,0.06599
1570.95322,0.06476
1569.98885,0.06313
1569.02448,0.06149
1568.06012,0.06044
1567.09575,0.05966
1566.13139,0.05862
1565.16702,0.05716
1564.20265,0.05564
1563.23829,0.05430
1562.27392,0.05315
1561.30955,0.05210
1560.34519,0.05073
1559.38082,0.04883
1558.41645,0.04659
1557.45209,0.04489
1556.48772,0.04402
1555.52335,0.04326
1554.55899,0.04201
1553.59462,0.04053
1552.63025,0.03945
1551.66589,0.03844
1550.70152,0.03710
1549.73715,0.03557
1548.77279,0.03434
1547.80842,0.03346
1546.84405,0.03245
1545.87969,0.03112
1544.91532,0.02968
1543.95095,0.02851
1542.98659,0.02755
1542.02222,0.02660
1541.05785,0.02560
1540.09349,0.02441
1539.12912,0.02326
1538.16475,0.02241
1537.20039,0.02194
1536.23602,0.02152
1535.27165,0.02086
1534.30729,0.01993
1533.34292,0.01889
1532.37855,0.01815
1531.41419,0.01772
1530.44982,0.01734
1529.48545,0.01677
1528.52109,0.01610
1527.55672,0.01552
1526.59235,0.01500
1525.62799,0.01451
1524.66362,0.01402
1523.69925,0.01355
1522.73489,0.01297
1521.77052,0.01230
1520.80615,0.01187
1519.84179,0.01184
1518.87742,0.01194
1517.91305,0.01169
1516.94869,0.01119
1515.98432,0.01088
1515.01995,0.01089
1514.05559,0.01098
1513.09122,0.01090
1512.12685,0.01074
1511.16249,0.01054
1510.19812,0.01032
1509.23375,0.01022
1508.26939,0.01026
1507.30502,0.01035
1506.34065,0.01031
1505.37629,0.01042
1504.41192,0.01069
1503.44756,0.01100
1502.48319,0.01120
1501.51882,0.01143
1500.55446,0.01168
1499.59009,0.01189
1498.62572,0.01210
1497.66136,0.01233
1496.69699,0.01260
1495.73262,0.01293
1494.76826,0.01338
1493.80389,0.01389
1492.83952,0.01433
1491.87516,0.01464
1490.91079,0.01483
1489.94642,0.01512
1488.98206,0.01566
1488.01769,0.01629
1487.05332,0.01691
1486.08896,0.01756
1485.12459,0.01829
1484.16022,0.01901
1483.19586,0.01970
1482.23149,0.02032
1481.26712,0.02092
1480.30276,0.02163
1479.33839,0.02245
1478.37402,0.02324
1477.40966,0.02389
1476.44529,0.02453
1475.48092,0.02532
1474.51656,0.02611
1473.55219,0.02680
1472.58782,0.02754
1471.62346,0.02859
1470.65909,0.02982
1469.69472,0.03102
1468.73036,0.03208
1467.76599,0.03307
1466.80162,0.03398
1465.83726,0.03485
1464.87289,0.03582
1463.90852,0.03697
1462.94416,0.03818
1461.97979,0.03927
1461.01542,0.04022
1460.05106,0.04107
1459.08669,0.04194
1458.12232,0.04300
1457.15796,0.04420
1456.19359,0.04549
1455.22922,0.04676
1454.26486,0.04802
1453.30049,0.04922
1452.33612,0.05041
1451.37176,0.05170
1450.40739,0.05297
1449.44302,0.05412
1448.47866,0.05521
1447.51429,0.05639
1446.54992,0.05765
1445.58556,0.05889
1444.62119,0.06008
1443.65682,0.06124
1442.69246,0.06244
1441.72809,0.06366
1440.76373,0.06486
1439.79936,0.06603
1438.83499,0.06713
1437.87063,0.06814
1436.90626,0.06912
1435.94189,0.07020
1434.97753,0.07132
1434.01316,0.07240
1433.04879,0.07339
1432.08443,0.07435
1431.12006,0.07529
1430.15569,0.07622
1429.19133,0.07725
1428.22696,0.07834
1427.26259,0.07947
1426.29823,0.08050
1425.33386,0.08135
1424.36949,0.08206
1423.40513,0.08281
1422.44076,0.08378
1421.47639,0.08474
1420.51203,0.08548
1419.54766,0.08599
1418.58329,0.08655
1417.61893,0.08730
1416.65456,0.08812
1415.69019,0.08894
1414.72583,0.08971
1413.76146,0.09046
1412.79709,0.09111
1411.83273,0.09167
1410.86836,0.09217
1409.90399,0.09264
1408.93963,0.09316
1407.97526,0.09373
1407.01089,0.09425
1406.04653,0.09463
1405.08216,0.09493
1404.11779,0.09532
1403.15343,0.09584
1402.18906,0.09637
1401.22469,0.09679
1400.26033,0.09708
1399.29596,0.09731
1398.33159,0.09762
1397.36723,0.09802
1396.40286,0.09831
1395.43849,0.09844
1394.47413,0.09859
1393.50976,0.09895
1392.54539,0.09935
1391.58103,0.09968
1390.61666,0.09999
1389.65229,0.10035
1388.68793,0.10060
1387.72356,0.10060
1386.75919,0.10057
1385.79483,0.10072
1384.83046,0.10096
1383.86609,0.10113
1382.90173,0.10126
1381.93736,0.10142
1380.97299,0.10154
1380.00863,0.10159
1379.04426,0.10159
1378.07989,0.10161
1377.11553,0.10165
1376.15116,0.10166
1375.18680,0.10154
1374.22243,0.10139
1373.25806,0.10135
1372.29370,0.10144
1371.32933,0.10152
1370.36496,0.10145
1369.40060,0.10129
1368.43623,0.10114
1367.47186,0.10104
1366.50750,0.10096
1365.54313,0.10082
1364.57876,0.10056
1363.61440,0.10021
1362.65003,0.09988
1361.68566,0.09968
1360.72130,0.09956
1359.75693,0.09943
1358.79256,0.09922
1357.82820,0.09892
1356.86383,0.09855
1355.89946,0.09815
1354.93510,0.09778
1353.97073,0.09749
1353.00636,0.09727
1352.04200,0.09700
1351.07763,0.09662
1350.11326,0.09619
1349.14890,0.09578
1348.18453,0.09541
1347.22016,0.09506
1346.25580,0.09468
1345.29143,0.09426
1344.32706,0.09386
1343.36270,0.09347
1342.39833,0.09306
1341.43396,0.09255
1340.46960,0.09193
1339.50523,0.09137
1338.54086,0.09100
1337.57650,0.09074
1336.61213,0.09043
1335.64776,0.09009
1334.68340,0.08974
1333.71903,0.08937
1332.75466,0.08897
1331.79030,0.08858
1330.82593,0.08822
1329.86156,0.08787
1328.89720,0.08753
1327.93283,0.08721
1326.96846,0.08689
1326.00410,0.08654
1325.03973,0.08622
1324.07536,0.08594
1323.11100,0.08564
1322.14663,0.08531
1321.18226,0.08498
1320.21790,0.08472
1319.25353,0.08449
1318.28916,0.08426
1317.32480,0.08402
1316.36043,0.08380
1315.39606,0.08363
1314.43170,0.08348
1313.46733,0.08332
1312.50297,0.08320
1311.53860,0.08316
1310.57423,0.08314
1309.60987,0.08304
1308.64550,0.08287
1307.68113,0.08274
1306.71677,0.08271
1305.75240,0.08274
1304.78803,0.08277
1303.82367,0.08280
1302.85930,0.08282
1301.89493,0.08283
1300.93057,0.08285
1299.96620,0.08290
1299.00183,0.08299
1298.03747,0.08310
1297.07310,0.08323
1296.10873,0.08332
1295.14437,0.08340
1294.18000,0.08357
1293.21563,0.08381
1292.25127,0.08407
1291.28690,0.08430
1290.32253,0.08451
1289.35817,0.08467
1288.39380,0.08478
1287.42943,0.08491
1286.46507,0.08511
1285.50070,0.08533
1284.53633,0.08559
1283.57197,0.08589
1282.60760,0.08623
1281.64323,0.08653
1280.67887,0.08679
1279.71450,0.08706
1278.75013,0.08735
1277.78577,0.08762
1276.82140,0.08787
1275.85703,0.08815
1274.89267,0.08846
1273.92830,0.08876
1272.96393,0.08902
1271.99957,0.08930
1271.03520,0.08966
1270.07083,0.09004
1269.10647,0.09037
1268.14210,0.09064
1267.17773,0.09091
1266.21337,0.09119
1265.24900,0.09146
1264.28463,0.09174
1263.32027,0.09206
1262.35590,0.09242
1261.39153,0.09276
1260.42717,0.09306
1259.46280,0.09339
1258.49843,0.09375
1257.53407,0.09408
1256.56970,0.09437
1255.60533,0.09466
1254.64097,0.09495
1253.67660,0.09521
1252.71223,0.09547
1251.74787,0.09573
1250.78350,0.09598
1249.81914,0.09620
1248.85477,0.09641
1247.89040,0.09663
1246.92604,0.09680
1245.96167,0.09693
1244.99730,0.09708
1244.03294,0.09728
1243.06857,0.09744
1242.10420,0.09751
1241.13984,0.09755
1240.17547,0.09762
1239.21110,0.09767
1238.24674,0.09767
1237.28237,0.09764
1236.31800,0.09762
1235.35364,0.09758
1234.38927,0.09749
1233.42490,0.09737
1232.46054,0.09722
1231.49617,0.09705
1230.53180,0.09687
1229.56744,0.09673
1228.60307,0.09654
1227.63870,0.09623
1226.67434,0.09584
1225.70997,0.09547
1224.74560,0.09510
1223.78124,0.09472
1222.81687,0.09432
1221.85250,0.09393
1220.88814,0.09348
1219.92377,0.09297
1218.95940,0.09245
1217.99504,0.09197
1217.03067,0.09148
1216.06630,0.09093
1215.10194,0.09033
1214.13757,0.08972
1213.17320,0.08914
1212.20884,0.08860
1211.24447,0.08806
1210.28010,0.08752
1209.31574,0.08698
1208.35137,0.08644
1207.38700,0.08591
1206.42264,0.08539
1205.45827,0.08486
1204.49390,0.08432
1203.52954,0.08381
1202.56517,0.08335
1201.60080,0.08285
1200.63644,0.08235
1199.67207,0.08190
1198.70770,0.08149
1197.74334,0.08106
1196.77897,0.08064
1195.81460,0.08030
1194.85024,0.08001
1193.88587,0.07971
1192.92150,0.07937
1191.95714,0.07899
1190.99277,0.07860
1190.02840,0.07824
1189.06404,0.07788
1188.09967,0.07755
1187.13531,0.07733
1186.17094,0.07717
1185.20657,0.07693
1184.24221,0.07659
1183.27784,0.07627
1182.31347,0.07604
1181.34911,0.07582
1180.38474,0.07563
1179.42037,0.07547
1178.45601,0.07530
1177.49164,0.07508
1176.52727,0.07484
1175.56291,0.07459
1174.59854,0.07441
1173.63417,0.07431
1172.66981,0.07416
1171.70544,0.07393
1170.74107,0.07371
1169.77671,0.07358
1168.81234,0.07347
1167.84797,0.07330
1166.88361,0.07318
1165.91924,0.07314
1164.95487,0.07309
1163.99051,0.07292
1163.02614,0.07275
1162.06177,0.07274
1161.09741,0.07283
1160.13304,0.07286
1159.16867,0.07277
1158.20431,0.07265
1157.23994,0.07256
1156.27557,0.07255
1155.31121,0.07259
1154.34684,0.07262
1153.38247,0.07260
1152.41811,0.07259
1151.45374,0.07268
1150.48937,0.07288
1149.52501,0.07310
1148.56064,0.07326
1147.59627,0.07335
1146.63191,0.07340
1145.66754,0.07344
1144.70317,0.07356
1143.73881,0.07375
1142.77444,0.07400
1141.81007,0.07424
1140.84571,0.07445
1139.88134,0.07462
1138.91697,0.07478
1137.95261,0.07498
1136.98824,0.07526
1136.02387,0.07558
1135.05951,0.07587
1134.09514,0.07611
1133.13077,0.07638
1132.16641,0.07672
1131.20204,0.07704
1130.23767,0.07733
1129.27331,0.07763
1128.30894,0.07797
1127.34457,0.07833
1126.38021,0.07875
1125.41584,0.07923
1124.45148,0.07970
1123.48711,0.08009
1122.52274,0.08045
1121.55838,0.08087
1120.59401,0.08135
1119.62964,0.08182
1118.66528,0.08225
1117.70091,0.08266
1116.73654,0.08309
1115.77218,0.08355
1114.80781,0.08404
1113.84344,0.08453
1112.87908,0.08503
1111.91471,0.08561
1110.95034,0.08627
1109.98598,0.08696
1109.02161,0.08767
1108.05724,0.08839
1107.09288,0.08908
1106.12851,0.08971
1105.16414,0.09037
1104.19978,0.09114
1103.23541,0.09195
1102.27104,0.09271
1101.30668,0.09346
1100.34231,0.09426
1099.37794,0.09511
1098.41358,0.09593
1097.44921,0.09674
1096.48484,0.09757
1095.52048,0.09852
1094.55611,0.09959
1093.59174,0.10069
1092.62738,0.10173
1091.66301,0.10270
1090.69864,0.10366
1089.73428,0.10463
1088.76991,0.10561
1087.80554,0.10658
1086.84118,0.10743
1085.87681,0.10822
1084.91244,0.10911
1083.94808,0.11012
1082.98371,0.11100
1082.01934,0.11171
1081.05498,0.11242
1080.09061,0.11326
1079.12624,0.11412
1078.16188,0.11490
1077.19751,0.11556
1076.23314,0.11612
1075.26878,0.11663
1074.30441,0.11714
1073.34004,0.11767
1072.37568,0.11821
1071.41131,0.11872
1070.44694,0.11909
1069.48258,0.11925
1068.51821,0.11927
1067.55384,0.11924
1066.58948,0.11917
1065.62511,0.11912
1064.66074,0.11909
1063.69638,0.11896
1062.73201,0.11862
1061.76765,0.11824
1060.80328,0.11792
1059.83891,0.11754
1058.87455,0.11687
1057.91018,0.11602
1056.94581,0.11521
1055.98145,0.11447
1055.01708,0.11368
1054.05271,0.11278
1053.08835,0.11182
1052.12398,0.11083
1051.15961,0.10988
1050.19525,0.10894
1049.23088,0.10791
1048.26651,0.10669
1047.30215,0.10533
1046.33778,0.10397
1045.37341,0.10276
1044.40905,0.10161
1043.44468,0.10037
1042.48031,0.09900
1041.51595,0.09759
1040.55158,0.09622
1039.58721,0.09488
1038.62285,0.09351
1037.65848,0.09208
1036.69411,0.09066
1035.72975,0.08935
1034.76538,0.08808
1033.80101,0.08674
1032.83665,0.08532
1031.87228,0.08391
1030.90791,0.08258
1029.94355,0.08128
1028.97918,0.07991
1028.01481,0.07851
1027.05045,0.07723
1026.08608,0.07612
1025.12171,0.07503
1024.15735,0.07384
1023.19298,0.07255
1022.22861,0.07126
1021.26425,0.07008
1020.29988,0.06904
1019.33551,0.06810
1018.37115,0.06718
1017.40678,0.06624
1016.44241,0.06535
1015.47805,0.06456
1014.51368,0.06379
1013.54931,0.06300
1012.58495,0.06223
1011.62058,0.06159
1010.65621,0.06106
1009.69185,0.06060
1008.72748,0.06021
1007.76311,0.05984
1006.79875,0.05948
1005.83438,0.05915
1004.87001,0.05886
1003.90565,0.05861
1002.94128,0.05838
1001.97691,0.05817
1001.01255,0.05795
1000.04818,0.05774
999.08382,0.05756
998.11945,0.05737
997.15508,0.05717
996.19072,0.05700
995.22635,0.05687
994.26198,0.05674
993.29762,0.05656
992.33325,0.05637
991.36888,0.05619
990.40452,0.05600
989.44015,0.05573
988.47578,0.05535
987.51142,0.05497
986.54705,0.05466
985.58268,0.05436
984.61832,0.05397
983.65395,0.05347
982.68958,0.05292
981.72522,0.05241
980.76085,0.05199
979.79648,0.05158
978.83212,0.05108
977.86775,0.05047
976.90338,0.04982
975.93902,0.04918
974.97465,0.04857
974.01028,0.04798
973.04592,0.04734
972.08155,0.04660
971.11718,0.04584
970.15282,0.04513
969.18845,0.04439
968.22408,0.04356
967.25972,0.04272
966.29535,0.04195
965.33098,0.04121
964.36662,0.04049
963.40225,0.03973
962.43788,0.03893
961.47352,0.03813
960.50915,0.03735
959.54478,0.03657
958.58042,0.03576
957.61605,0.03496
956.65168,0.03418
955.68732,0.03342
954.72295,0.03267
953.75858,0.03189
952.79422,0.03109
951.82985,0.03033
950.86548,0.02958
949.90112,0.02882
948.93675,0.02808
947.97238,0.02744
947.00802,0.02687
946.04365,0.02625
945.07928,0.02555
944.11492,0.02479
943.15055,0.02399
942.18618,0.02322
941.22182,0.02255
940.25745,0.02190
939.29308,0.02122
938.32872,0.02060
937.36435,0.02003
936.39998,0.01936
935.43562,0.01859
934.47125,0.01792
933.50689,0.01737
932.54252,0.01679
931.57815,0.01609
930.61379,0.01534
929.64942,0.01466
928.68505,0.01404
927.72069,0.01347
926.75632,0.01293
925.79195,0.01237
924.82759,0.01178
923.86322,0.01119
922.89885,0.01062
921.93449,0.01005
920.97012,0.00944
920.00575,0.00886
919.04139,0.00838
918.07702,0.00798
917.11265,0.00753
916.14829,0.00703
915.18392,0.00658
914.21955,0.00623
913.25519,0.00585
912.29082,0.00538
911.32645,0.00489
910.36209,0.00450
909.39772,0.00416
908.43335,0.00380
907.46899,0.00342
906.50462,0.00308
905.54025,0.00279
904.57589,0.00250
903.61152,0.00221
902.64715,0.00194
901.68279,0.00171
900.71842,0.00155
899.75405,0.00143
898.78969,0.00122
897.82532,0.00093
896.86095,0.00073
895.89659,0.00070
894.93222,0.00066
893.96785,0.00048
893.00349,0.00028
892.03912,0.00018
891.07475,0.00017
890.11039,0.00013
889.14602,0.00010
888.18165,0.00014
887.21729,0.00017
886.25292,0.00012
885.28855,0.00005
884.32419,0.00004
883.35982,0.00008
882.39545,0.00015
881.43109,0.00024
880.46672,0.00032
879.50235,0.00038
878.53799,0.00039
877.57362,0.00036
876.60925,0.00039
875.64489,0.00057
874.68052,0.00086
873.71615,0.00105
872.75179,0.00108
871.78742,0.00107
870.82306,0.00116
869.85869,0.00138
868.89432,0.00164
867.92996,0.00189
866.96559,0.00208
866.00122,0.00223
865.03686,0.00242
864.07249,0.00259
863.10812,0.00270
862.14376,0.00284
861.17939,0.00307
860.21502,0.00332
859.25066,0.00353
858.28629,0.00373
857.32192,0.00395
856.35756,0.00413
855.39319,0.00424
854.42882,0.00427
853.46446,0.00431
852.50009,0.00438
851.53572,0.00451
850.57136,0.00471
849.60699,0.00498
848.64262,0.00523
847.67826,0.00545
846.71389,0.00566
845.74952,0.00579
844.78516,0.00579
843.82079,0.00582
842.85642,0.00595
841.89206,0.00609
840.92769,0.00612
839.96332,0.00612
838.99896,0.00619
838.03459,0.00632
837.07022,0.00636
836.10586,0.00630
835.14149,0.00623
834.17712,0.00624
833.21276,0.00632
832.24839,0.00633
831.28402,0.00624
830.31966,0.00614
829.35529,0.00615
828.39092,0.00621
827.42656,0.00623
826.46219,0.00622
825.49782,0.00623
824.53346,0.00620
823.56909,0.00607
822.60472,0.00589
821.64036,0.00581
820.67599,0.00577
819.71162,0.00566
818.74726,0.00552
817.78289,0.00546
816.81852,0.00542
815.85416,0.00535
814.88979,0.00524
813.92542,0.00508
812.96106,0.00485
811.99669,0.00461
811.03232,0.00445
810.06796,0.00439
809.10359,0.00434
808.13923,0.00425
807.17486,0.00419
806.21049,0.00420
805.24613,0.00426
804.28176,0.00431
803.31739,0.00425
802.35303,0.00405
801.38866,0.00384
800.42429,0.00371
799.45993,0.00365
798.49556,0.00361
797.53119,0.00358
796.56683,0.00358
795.60246,0.00358
794.63809,0.00355
793.67373,0.00351
792.70936,0.00352
791.74499,0.00357
790.78063,0.00356
789.81626,0.00342
788.85189,0.00327
787.88753,0.00326
786.92316,0.00330
785.95879,0.00326
784.99443,0.00317
784.03006,0.00313
783.06569,0.00313
782.10133,0.00320
781.13696,0.00331
780.17259,0.00337
779.20823,0.00332
778.24386,0.00322
777.27949,0.00316
776.31513,0.00320
775.35076,0.00331
774.38639,0.00341
773.42203,0.00346
772.45766,0.00350
771.49329,0.00354
770.52893,0.00355
769.56456,0.00360
768.60019,0.00375
767.63583,0.00391
766.67146,0.00400
765.70709,0.00407
764.74273,0.00410
763.77836,0.00407
762.81399,0.00403
761.84963,0.00406
760.88526,0.00409
759.92089,0.00408
758.95653,0.00412
757.99216,0.00427
757.02779,0.00445
756.06343,0.00451
755.09906,0.00450
754.13469,0.00448
753.17033,0.00451
752.20596,0.00463
751.24159,0.00485
750.27723,0.00507
749.31286,0.00519
748.34849,0.00522
747.38413,0.00524
746.41976,0.00535
745.45540,0.00549
744.49103,0.00556
743.52666,0.00556
742.56230,0.00558
741.59793,0.00568
740.63356,0.00586
739.66920,0.00608
738.70483,0.00630
737.74046,0.00642
736.77610,0.00644
735.81173,0.00650
734.84736,0.00665
733.88300,0.00679
732.91863,0.00690
731.95426,0.00704
730.98990,0.00727
730.02553,0.00751
729.06116,0.00767
728.09680,0.00770
727.13243,0.00763
726.16806,0.00756
725.20370,0.00761
724.23933,0.00785
723.27496,0.00817
722.31060,0.00850
721.34623,0.00880
720.38186,0.00904
719.41750,0.00919
718.45313,0.00929
717.48876,0.00932
716.52440,0.00928
715.56003,0.00930
714.59566,0.00949
713.63130,0.00975
712.66693,0.00991
711.70256,0.01001
710.73820,0.01016
709.77383,0.01036
708.80946,0.01051
707.84510,0.01059
706.88073,0.01059
705.91636,0.01058
704.95200,0.01065
703.98763,0.01088
703.02326,0.01111
702.05890,0.01119
701.09453,0.01124
700.13016,0.01143
699.16580,0.01172
698.20143,0.01190
697.23706,0.01189
696.27270,0.01180
695.30833,0.01186
694.34396,0.01206
693.37960,0.01216
692.41523,0.01209
691.45086,0.01214
690.48650,0.01248
689.52213,0.01279
688.55776,0.01282
687.59340,0.01272
686.62903,0.01279
685.66466,0.01301
684.70030,0.01322
683.73593,0.01328
682.77157,0.01326
681.80720,0.01332
680.84283,0.01347
679.87847,0.01356
678.91410,0.01353
677.94973,0.01351
676.98537,0.01359
676.02100,0.01376
675.05663,0.01396
674.09227,0.01402
673.12790,0.01386
672.16353,0.01364
671.19917,0.01371
670.23480,0.01500
669.27043,0.01713
668.30607,0.01841
667.34170,0.01723
666.37733,0.01523
665.41297,0.01420
664.44860,0.01440
663.48423,0.01477
662.51987,0.01497
661.55550,0.01501
660.59113,0.01500
659.62677,0.01506
658.66240,0.01525
657.69803,0.01550
656.73367,0.01567
655.76930,0.01565
654.80493,0.01559
653.84057,0.01565
652.87620,0.01576
651.91183,0.01582
650.94747,0.01591
649.98310,0.01607
649.01873,0.01620
648.05437,0.01624
647.09000,0.01634
646.12563,0.01651
645.16127,0.01657
644.19690,0.01651
643.23253,0.01649
642.26817,0.01655
641.30380,0.01654
640.33943,0.01648
639.37507,0.01649
638.41070,0.01658
637.44633,0.01662
636.48197,0.01662
635.51760,0.01663
634.55323,0.01673
633.58887,0.01698
632.62450,0.01725
631.66013,0.01739
630.69577,0.01737
629.73140,0.01731
628.76703,0.01736
627.80267,0.01755
626.83830,0.01774
625.87393,0.01781
624.90957,0.01786
623.94520,0.01803
622.98083,0.01822
622.01647,0.01825
621.05210,0.01812
620.08774,0.01801
619.12337,0.01808
618.15900,0.01827
617.19464,0.01845
616.23027,0.01850
615.26590,0.01835
614.30154,0.01807
613.33717,0.01789
612.37280,0.01804
611.40844,0.01843
610.44407,0.01878
609.47970,0.01886
608.51534,0.01868
607.55097,0.01833
606.58660,0.01799
605.62224,0.01784
604.65787,0.01791
603.69350,0.01806
602.72914,0.01815
601.76477,0.01822
600.80040,0.01830
599.83604,0.01834
598.87167,0.01828
597.90730,0.01812
596.94294,0.01786
595.97857,0.01760
595.01420,0.01747
594.04984,0.01750
593.08547,0.01759
592.12110,0.01767
591.15674,0.01777
590.19237,0.01778
589.22800,0.01763
588.26364,0.01743
587.29927,0.01729
586.33490,0.01716
585.37054,0.01696
584.40617,0.01680
583.44180,0.01686
582.47744,0.01716
581.51307,0.01759
580.54870,0.01792
579.58434,0.01798
578.61997,0.01776
577.65560,0.01745
576.69124,0.01724
575.72687,0.01721
574.76250,0.01740
573.79814,0.01764
572.83377,0.01769
571.86940,0.01749
570.90504,0.01717
569.94067,0.01691
568.97630,0.01685
568.01194,0.01706
567.04757,0.01729
566.08320,0.01727
565.11884,0.01702
564.15447,0.01682
563.19010,0.01688
562.22574,0.01701
561.26137,0.01692
560.29700,0.01658
559.33264,0.01628
558.36827,0.01628
557.40390,0.01652
556.43954,0.01669
555.47517,0.01664
554.51081,0.01657
553.54644,0.01676
552.58207,0.01701
551.61771,0.01687
550.65334,0.01640
549.68897,0.01620
548.72461,0.01632
547.76024,0.01633
546.79587,0.01613
545.83151,0.01595
544.86714,0.01589
543.90277,0.01597
542.93841,0.01622
541.97404,0.01638
541.00967,0.01622
540.04531,0.01593
539.08094,0.01579
538.11657,0.01576
537.15221,0.01571
536.18784,0.01569
535.22347,0.01582
534.25911,0.01606
533.29474,0.01622
532.33037,0.01627
531.36601,0.01620
530.40164,0.01598
529.43727,0.01569
528.47291,0.01554
527.50854,0.01555
526.54417,0.01553
525.57981,0.01541
524.61544,0.01527
523.65107,0.01527
522.68671,0.01542
521.72234,0.01560
520.75797,0.01560
519.79361,0.01536
518.82924,0.01505
517.86487,0.01494
516.90051,0.01499
515.93614,0.01483
514.97177,0.01445
514.00741,0.01441
513.04304,0.01500
512.07867,0.01565
511.11431,0.01564
510.14994,0.01510
509.18557,0.01476
508.22121,0.01482
507.25684,0.01490
506.29247,0.01491
505.32811,0.01523
504.36374,0.01562
503.39937,0.01539
502.43501,0.01450
501.47064,0.01371
500.50627,0.01364
499.54191,0.01399
498.57754,0.01408
497.61317,0.01380
496.64881,0.01364
495.68444,0.01381
494.72007,0.01407
493.75571,0.01413
492.79134,0.01381
491.82698,0.01308
490.86261,0.01241
489.89824,0.01235
488.93388,0.01274
487.96951,0.01297
487.00514,0.01290
486.04078,0.01286
485.07641,0.01305
484.11204,0.01341
483.14768,0.01377
482.18331,0.01383
481.21894,0.01352
480.25458,0.01324
479.29021,0.01314
478.32584,0.01272
477.36148,0.01194
476.39711,0.01154
475.43274,0.01171
474.46838,0.01189
473.50401,0.01209
472.53964,0.01277
471.57528,0.01366
470.61091,0.01394
469.64654,0.01364
468.68218,0.01331
467.71781,0.01293
466.75344,0.01236
465.78908,0.01217
464.82471,0.01245
463.86034,0.01223
462.89598,0.01125
461.93161,0.01064
460.96724,0.01123
460.00288,0.01230
459.03851,0.01256
458.07414,0.01175
457.10978,0.01065
456.14541,0.01019
455.18104,0.01029
454.21668,0.01023
453.25231,0.00967
452.28794,0.00914
451.32358,0.00943
450.35921,0.01066
449.39484,0.01192
448.43048,0.01196
447.46611,0.01060
446.50174,0.00902
445.53738,0.00815
444.57301,0.00740
443.60864,0.00623
442.64428,0.00535
441.67991,0.00544
440.71554,0.00617
439.75118,0.00701
438.78681,0.00794
437.82244,0.00862
436.85808,0.00824
435.89371,0.00696
434.92934,0.00647
433.96498,0.00756
433.00061,0.00844
432.03624,0.00777
431.07188,0.00690
430.10751,0.00695
429.14315,0.00693
428.17878,0.00622
427.21441,0.00586
426.25005,0.00600
425.28568,0.00592
424.32131,0.00622
423.35695,0.00738
422.39258,0.00778
421.42821,0.00633
420.46385,0.00512
419.49948,0.00556
418.53511,0.00606
417.57075,0.00504
416.60638,0.00332
415.64201,0.00201
414.67765,0.00157
413.71328,0.00209
412.74891,0.00310
411.78455,0.00354
410.82018,0.00293
409.85581,0.00153
408.89145,0.00054
407.92708,0.00101
406.96271,0.00260
405.99835,0.00375
405.03398,0.00345
404.06961,0.00210
403.10525,0.00111
402.14088,0.00152
401.17651,0.00241
400.21215,0.00241
399.24778,0.00241
