1900.76660,0.00065
1899.80223,0.00063
1898.83787,0.00062
1897.87350,0.00060
1896.90913,0.00058
1895.94477,0.00056
1894.98040,0.00055
1894.01603,0.00053
1893.05167,0.00051
1892.08730,0.00049
1891.12293,0.00048
1890.15857,0.00046
1889.19420,0.00044
1888.22983,0.00042
1887.26547,0.00041
1886.30110,0.00039
1885.33673,0.00037
1884.37237,0.00035
1883.40800,0.00034
1882.44364,0.00032
1881.47927,0.00030
1880.51490,0.00043
1879.55054,0.00040
1878.58617,0.00045
1877.62180,0.00049
1876.65744,0.00035
1875.69307,0.00012
1874.72870,0.00006
1873.76434,0.00019
1872.79997,0.00028
1871.83560,0.00021
1870.87124,0.00014
1869.90687,0.00034
1868.94250,0.00070
1867.97814,0.00084
1867.01377,0.00053
1866.04940,0.00012
1865.08504,0.00004
1864.12067,0.00018
1863.15630,0.00026
1862.19194,0.00028
1861.22757,0.00041
1860.26320,0.00058
1859.29884,0.00068
1858.33447,0.00070
1857.37010,0.00061
1856.40574,0.00060
1855.44137,0.00067
1854.47700,0.00077
1853.51264,0.00086
1852.54827,0.00096
1851.58390,0.00105
1850.61954,0.00107
1849.65517,0.00121
1848.69080,0.00138
1847.72644,0.00153
1846.76207,0.00181
1845.79770,0.00238
1844.83334,0.00281
1843.86897,0.00274
1842.90460,0.00255
1841.94024,0.00260
1840.97587,0.00279
1840.01150,0.00292
1839.04714,0.00306
1838.08277,0.00331
1837.11840,0.00358
1836.15404,0.00388
1835.18967,0.00425
1834.22530,0.00467
1833.26094,0.00496
1832.29657,0.00514
1831.33220,0.00550
1830.36784,0.00596
1829.40347,0.00628
1828.43910,0.00636
1827.47474,0.00652
1826.51037,0.00679
1825.54600,0.00692
1824.58164,0.00698
1823.61727,0.00721
1822.65290,0.00760
1821.68854,0.00777
1820.72417,0.00783
1819.75981,0.00803
1818.79544,0.00821
1817.83107,0.00820
1816.86671,0.00823
1815.90234,0.00851
1814.93797,0.00890
1813.97361,0.00922
1813.00924,0.00941
1812.04487,0.00962
1811.08051,0.00983
1810.11614,0.00994
1809.15177,0.01002
1808.18741,0.01011
1807.22304,0.01019
1806.25867,0.01020
1805.29431,0.01028
1804.32994,0.01044
1803.36557,0.01070
1802.40121,0.01098
1801.43684,0.01125
1800.47247,0.01153
1799.50811,0.01155
1798.54374,0.01142
1797.57937,0.01153
1796.61501,0.01190
1795.65064,0.01215
1794.68627,0.01232
1793.72191,0.01276
1792.75754,0.01321
1791.79317,0.01348
1790.82881,0.01350
1789.86444,0.01355
1788.90007,0.01376
1787.93571,0.01408
1786.97134,0.01454
1786.00697,0.01510
1785.04261,0.01565
1784.07824,0.01594
1783.11387,0.01626
1782.14951,0.01687
1781.18514,0.01751
1780.22077,0.01808
1779.25641,0.01858
1778.29204,0.01917
1777.32767,0.01987
1776.36331,0.02065
1775.39894,0.02138
1774.43457,0.02216
1773.47021,0.02330
1772.50584,0.02429
1771.54147,0.02486
1770.57711,0.02531
1769.61274,0.02627
1768.64837,0.02729
1767.68401,0.02807
1766.71964,0.02878
1765.75527,0.02971
1764.79091,0.03076
1763.82654,0.03185
1762.86217,0.03323
1761.89781,0.03443
1760.93344,0.03525
1759.96907,0.03598
1759.00471,0.03702
1758.04034,0.03840
1757.07597,0.03955
1756.11161,0.04048
1755.14724,0.04136
1754.18288,0.04248
1753.21851,0.04386
1752.25414,0.04519
1751.28978,0.04623
1750.32541,0.04701
1749.36104,0.04807
1748.39668,0.04916
1747.43231,0.04989
1746.46794,0.05053
1745.50358,0.05138
1744.53921,0.05249
1743.57484,0.05331
1742.61048,0.05382
1741.64611,0.05454
1740.68174,0.05555
1739.71738,0.05615
1738.75301,0.05636
1737.78864,0.05675
1736.82428,0.05740
1735.85991,0.05853
1734.89554,0.05948
1733.93118,0.05943
1732.96681,0.05874
1732.00244,0.05873
1731.03808,0.05928
1730.07371,0.05933
1729.10934,0.05908
1728.14498,0.05889
1727.18061,0.05885
1726.21624,0.05863
1725.25188,0.05843
1724.28751,0.05831
1723.32314,0.05800
1722.35878,0.05758
1721.39441,0.05719
1720.43004,0.05719
1719.46568,0.05775
1718.50131,0.05751
1717.53694,0.05626
1716.57258,0.05506
1715.60821,0.05476
1714.64384,0.05405
1713.67948,0.05298
1712.71511,0.05218
1711.75074,0.05172
1710.78638,0.05115
1709.82201,0.05035
1708.85764,0.04969
1707.89328,0.04933
1706.92891,0.04888
1705.96454,0.04811
1705.00018,0.04723
1704.03581,0.04632
1703.07144,0.04553
1702.10708,0.04588
1701.14271,0.04573
1700.17834,0.04426
1699.21398,0.04247
1698.24961,0.04226
1697.28524,0.04278
1696.32088,0.04214
1695.35651,0.04069
1694.39214,0.03948
1693.42778,0.03930
1692.46341,0.03912
1691.49905,0.03891
1690.53468,0.03865
1689.57031,0.03838
1688.60595,0.03808
1687.64158,0.03779
1686.67721,0.03785
1685.71285,0.03863
1684.74848,0.03912
1683.78411,0.03845
1682.81975,0.03748
1681.85538,0.03744
1680.89101,0.03781
1679.92665,0.03795
1678.96228,0.03792
1677.99791,0.03820
1677.03355,0.03892
1676.06918,0.03975
1675.10481,0.04010
1674.14045,0.04021
1673.17608,0.04077
1672.21171,0.04168
1671.24735,0.04269
1670.28298,0.04368
1669.31861,0.04438
1668.35425,0.04474
1667.38988,0.04527
1666.42551,0.04625
1665.46115,0.04732
1664.49678,0.04861
1663.53241,0.04985
1662.56805,0.05082
1661.60368,0.05158
1660.63931,0.05256
1659.67495,0.05379
1658.71058,0.05505
1657.74621,0.05631
1656.78185,0.05754
1655.81748,0.05909
1654.85311,0.06127
1653.88875,0.06351
1652.92438,0.06439
1651.96001,0.06441
1650.99565,0.06490
1650.03128,0.06636
1649.06691,0.06810
1648.10255,0.06982
1647.13818,0.07131
1646.17381,0.07217
1645.20945,0.07291
1644.24508,0.07400
1643.28071,0.07544
1642.31635,0.07690
1641.35198,0.07825
1640.38761,0.07965
1639.42325,0.08112
1638.45888,0.08266
1637.49451,0.08435
1636.53015,0.08615
1635.56578,0.08726
1634.60141,0.08781
1633.63705,0.08861
1632.67268,0.09007
1631.70831,0.09140
1630.74395,0.09249
1629.77958,0.09372
1628.81522,0.09496
1627.85085,0.09577
1626.88648,0.09624
1625.92212,0.09688
1624.95775,0.09810
1623.99338,0.09869
1623.02902,0.09858
1622.06465,0.09826
1621.10028,0.09835
1620.13592,0.09838
1619.17155,0.09845
1618.20718,0.09918
1617.24282,0.09866
1616.27845,0.09715
1615.31408,0.09568
1614.34972,0.09538
1613.38535,0.09486
1612.42098,0.09402
1611.45662,0.09337
1610.49225,0.09265
1609.52788,0.09187
1608.56352,0.09095
1607.59915,0.09017
1606.63478,0.08938
1605.67042,0.08857
1604.70605,0.08798
1603.74168,0.08735
1602.77732,0.08670
1601.81295,0.08595
1600.84858,0.08537
1599.88422,0.08490
1598.91985,0.08455
1597.95548,0.08421
1596.99112,0.08377
1596.02675,0.08347
1595.06238,0.08310
1594.09802,0.08268
1593.13365,0.08210
1592.16928,0.08165
1591.20492,0.08128
1590.24055,0.08079
1589.27618,0.08030
1588.31182,0.07968
1587.34745,0.07914
1586.38308,0.07849
1585.41872,0.07786
1584.45435,0.07719
1583.48998,0.07646
1582.52562,0.07575
1581.56125,0.07487
1580.59688,0.07402
1579.63252,0.07303
1578.66815,0.07231
1577.70378,0.07216
1576.73942,0.07091
1575.77505,0.06876
1574.81068,0.06667
1573.84632,0.06588
1572.88195,0.06480
1571.91758,0.06378
1570.95322,0.06315
1569.98885,0.06168
1569.02448,0.05955
1568.06012,0.05752
1567.09575,0.05661
1566.13139,0.05566
1565.16702,0.05427
1564.20265,0.05246
1563.23829,0.05081
1562.27392,0.05002
1561.30955,0.04978
1560.34519,0.04965
1559.38082,0.04828
1558.41645,0.04545
1557.45209,0.04271
1556.48772,0.04151
1555.52335,0.04128
1554.55899,0.03995
1553.59462,0.03817
1552.63025,0.03678
1551.66589,0.03628
1550.70152,0.03551
1549.73715,0.03421
1548.77279,0.03279
1547.80842,0.03169
1546.84405,0.03122
1545.87969,0.03056
1544.91532,0.02963
1543.95095,0.02883
1542.98659,0.02818
1542.02222,0.02749
1541.05785,0.02684
1540.09349,0.02630
1539.12912,0.02488
1538.16475,0.02324
1537.20039,0.02224
1536.23602,0.02193
1535.27165,0.02190
1534.30729,0.02152
1533.34292,0.02072
1532.37855,0.01966
1531.41419,0.01898
1530.44982,0.01851
1529.48545,0.01822
1528.52109,0.01795
1527.55672,0.01754
1526.59235,0.01727
1525.62799,0.01683
1524.66362,0.01636
1523.69925,0.01628
1522.73489,0.01665
1521.77052,0.01665
1520.80615,0.01580
1519.84179,0.01502
1518.87742,0.01496
1517.91305,0.01537
1516.94869,0.01528
1515.98432,0.01478
1515.01995,0.01442
1514.05559,0.01440
1513.09122,0.01454
1512.12685,0.01454
1511.16249,0.01455
1510.19812,0.01475
1509.23375,0.01522
1508.26939,0.01601
1507.30502,0.01653
1506.34065,0.01626
1505.37629,0.01536
1504.41192,0.01497
1503.44756,0.01509
1502.48319,0.01537
1501.51882,0.01558
1500.55446,0.01592
1499.59009,0.01639
1498.62572,0.01666
1497.66136,0.01700
1496.69699,0.01728
1495.73262,0.01747
1494.76826,0.01755
1493.80389,0.01785
1492.83952,0.01842
1491.87516,0.01919
1490.91079,0.02006
1489.94642,0.02056
1488.98206,0.02091
1488.01769,0.02138
1487.05332,0.02184
1486.08896,0.02227
1485.12459,0.02274
1484.16022,0.02342
1483.19586,0.02415
1482.23149,0.02497
1481.26712,0.02571
1480.30276,0.02633
1479.33839,0.02703
1478.37402,0.02790
1477.40966,0.02906
1476.44529,0.03008
1475.48092,0.03100
1474.51656,0.03217
1473.55219,0.03361
1472.58782,0.03474
1471.62346,0.03525
1470.65909,0.03587
1469.69472,0.03680
1468.73036,0.03794
1467.76599,0.03903
1466.80162,0.04019
1465.83726,0.04150
1464.87289,0.04243
1463.90852,0.04322
1462.94416,0.04405
1461.97979,0.04517
1461.01542,0.04634
1460.05106,0.04762
1459.08669,0.04923
1458.12232,0.05060
1457.15796,0.05147
1456.19359,0.05189
1455.22922,0.05255
1454.26486,0.05353
1453.30049,0.05464
1452.33612,0.05580
1451.37176,0.05678
1450.40739,0.05783
1449.44302,0.05904
1448.47866,0.06025
1447.51429,0.06122
1446.54992,0.06216
1445.58556,0.06333
1444.62119,0.06446
1443.65682,0.06555
1442.69246,0.06656
1441.72809,0.06762
1440.76373,0.06866
1439.79936,0.06974
1438.83499,0.07107
1437.87063,0.07252
1436.90626,0.07354
1435.94189,0.07409
1434.97753,0.07487
1434.01316,0.07605
1433.04879,0.07714
1432.08443,0.07816
1431.12006,0.07921
1430.15569,0.08023
1429.19133,0.08108
1428.22696,0.08196
1427.26259,0.08284
1426.29823,0.08383
1425.33386,0.08499
1424.36949,0.08608
1423.40513,0.08690
1422.44076,0.08755
1421.47639,0.08869
1420.51203,0.09023
1419.54766,0.09128
1418.58329,0.09181
1417.61893,0.09232
1416.65456,0.09322
1415.69019,0.09397
1414.72583,0.09480
1413.76146,0.09571
1412.79709,0.09664
1411.83273,0.09749
1410.86836,0.09819
1409.90399,0.09889
1408.93963,0.09962
1407.97526,0.10038
1407.01089,0.10120
1406.04653,0.10208
1405.08216,0.10267
1404.11779,0.10301
1403.15343,0.10349
1402.18906,0.10417
1401.22469,0.10496
1400.26033,0.10576
1399.29596,0.10623
1398.33159,0.10636
1397.36723,0.10666
1396.40286,0.10741
1395.43849,0.10781
1394.47413,0.10765
1393.50976,0.10747
1392.54539,0.10777
1391.58103,0.10815
1390.61666,0.10827
1389.65229,0.10851
1388.68793,0.10895
1387.72356,0.10905
1386.75919,0.10872
1385.79483,0.10853
1384.83046,0.10870
1383.86609,0.10888
1382.90173,0.10895
1381.93736,0.10895
1380.97299,0.10898
1380.00863,0.10903
1379.04426,0.10905
1378.07989,0.10896
1377.11553,0.10893
1376.15116,0.10911
1375.18680,0.10924
1374.22243,0.10894
1373.25806,0.10840
1372.29370,0.10810
1371.32933,0.10801
1370.36496,0.10798
1369.40060,0.10790
1368.43623,0.10769
1367.47186,0.10740
1366.50750,0.10709
1365.54313,0.10694
1364.57876,0.10697
1363.61440,0.10682
1362.65003,0.10637
1361.68566,0.10581
1360.72130,0.10540
1359.75693,0.10504
1358.79256,0.10477
1357.82820,0.10449
1356.86383,0.10418
1355.89946,0.10387
1354.93510,0.10348
1353.97073,0.10300
1353.00636,0.10253
1352.04200,0.10211
1351.07763,0.10172
1350.11326,0.10134
1349.14890,0.10085
1348.18453,0.10024
1347.22016,0.09969
1346.25580,0.09920
1345.29143,0.09870
1344.32706,0.09815
1343.36270,0.09765
1342.39833,0.09727
1341.43396,0.09691
1340.46960,0.09642
1339.50523,0.09569
1338.54086,0.09494
1337.57650,0.09434
1336.61213,0.09382
1335.64776,0.09326
1334.68340,0.09271
1333.71903,0.09224
1332.75466,0.09177
1331.79030,0.09127
1330.82593,0.09079
1329.86156,0.09035
1328.89720,0.08993
1327.93283,0.08953
1326.96846,0.08911
1326.00410,0.08866
1325.03973,0.08822
1324.07536,0.08787
1323.11100,0.08756
1322.14663,0.08721
1321.18226,0.08690
1320.21790,0.08661
1319.25353,0.08625
1318.28916,0.08587
1317.32480,0.08551
1316.36043,0.08517
1315.39606,0.08484
1314.43170,0.08456
1313.46733,0.08428
1312.50297,0.08395
1311.53860,0.08362
1310.57423,0.08338
1309.60987,0.08318
1308.64550,0.08295
1307.68113,0.08267
1306.71677,0.08240
1305.75240,0.08211
1304.78803,0.08178
1303.82367,0.08143
1302.85930,0.08114
1301.89493,0.08090
1300.93057,0.08065
1299.96620,0.08037
1299.00183,0.08014
1298.03747,0.08001
1297.07310,0.07991
1296.10873,0.07981
1295.14437,0.07972
1294.18000,0.07963
1293.21563,0.07954
1292.25127,0.07953
1291.28690,0.07957
1290.32253,0.07957
1289.35817,0.07952
1288.39380,0.07951
1287.42943,0.07953
1286.46507,0.07954
1285.50070,0.07953
1284.53633,0.07951
1283.57197,0.07947
1282.60760,0.07945
1281.64323,0.07943
1280.67887,0.07942
1279.71450,0.07940
1278.75013,0.07942
1277.78577,0.07949
1276.82140,0.07955
1275.85703,0.07954
1274.89267,0.07953
1273.92830,0.07965
1272.96393,0.07981
1271.99957,0.07988
1271.03520,0.07988
1270.07083,0.07999
1269.10647,0.08020
1268.14210,0.08038
1267.17773,0.08049
1266.21337,0.08058
1265.24900,0.08069
1264.28463,0.08087
1263.32027,0.08105
1262.35590,0.08120
1261.39153,0.08134
1260.42717,0.08147
1259.46280,0.08155
1258.49843,0.08168
1257.53407,0.08191
1256.56970,0.08220
1255.60533,0.08242
1254.64097,0.08253
1253.67660,0.08261
1252.71223,0.08277
1251.74787,0.08297
1250.78350,0.08312
1249.81914,0.08325
1248.85477,0.08338
1247.89040,0.08352
1246.92604,0.08365
1245.96167,0.08379
1244.99730,0.08389
1244.03294,0.08395
1243.06857,0.08407
1242.10420,0.08419
1241.13984,0.08422
1240.17547,0.08420
1239.21110,0.08426
1238.24674,0.08438
1237.28237,0.08439
1236.31800,0.08432
1235.35364,0.08430
1234.38927,0.08431
1233.42490,0.08433
1232.46054,0.08434
1231.49617,0.08425
1230.53180,0.08407
1229.56744,0.08394
1228.60307,0.08388
1227.63870,0.08379
1226.67434,0.08362
1225.70997,0.08338
1224.74560,0.08309
1223.78124,0.08280
1222.81687,0.08256
1221.85250,0.08234
1220.88814,0.08207
1219.92377,0.08168
1218.95940,0.08124
1217.99504,0.08082
1217.03067,0.08041
1216.06630,0.08000
1215.10194,0.07961
1214.13757,0.07921
1213.17320,0.07875
1212.20884,0.07827
1211.24447,0.07780
1210.28010,0.07736
1209.31574,0.07691
1208.35137,0.07645
1207.38700,0.07598
1206.42264,0.07553
1205.45827,0.07510
1204.49390,0.07464
1203.52954,0.07418
1202.56517,0.07379
1201.60080,0.07346
1200.63644,0.07308
1199.67207,0.07262
1198.70770,0.07215
1197.74334,0.07174
1196.77897,0.07139
1195.81460,0.07103
1194.85024,0.07065
1193.88587,0.07024
1192.92150,0.06982
1191.95714,0.06948
1190.99277,0.06922
1190.02840,0.06896
1189.06404,0.06866
1188.09967,0.06838
1187.13531,0.06815
1186.17094,0.06793
1185.20657,0.06769
1184.24221,0.06744
1183.27784,0.06719
1182.31347,0.06689
1181.34911,0.06658
1180.38474,0.06635
1179.42037,0.06626
1178.45601,0.06616
1177.49164,0.06598
1176.52727,0.06576
1175.56291,0.06549
1174.59854,0.06525
1173.63417,0.06511
1172.66981,0.06508
1171.70544,0.06507
1170.74107,0.06500
1169.77671,0.06489
1168.81234,0.06477
1167.84797,0.06474
1166.88361,0.06474
1165.91924,0.06468
1164.95487,0.06453
1163.99051,0.06435
1163.02614,0.06428
1162.06177,0.06427
1161.09741,0.06424
1160.13304,0.06415
1159.16867,0.06408
1158.20431,0.06410
1157.23994,0.06416
1156.27557,0.06421
1155.31121,0.06422
1154.34684,0.06430
1153.38247,0.06447
1152.41811,0.06461
1151.45374,0.06468
1150.48937,0.06477
1149.52501,0.06496
1148.56064,0.06522
1147.59627,0.06548
1146.63191,0.06573
1145.66754,0.06588
1144.70317,0.06598
1143.73881,0.06617
1142.77444,0.06643
1141.81007,0.06666
1140.84571,0.06688
1139.88134,0.06711
1138.91697,0.06736
1137.95261,0.06762
1136.98824,0.06790
1136.02387,0.06819
1135.05951,0.06846
1134.09514,0.06874
1133.13077,0.06905
1132.16641,0.06934
1131.20204,0.06957
1130.23767,0.06984
1129.27331,0.07027
1128.30894,0.07079
1127.34457,0.07127
1126.38021,0.07164
1125.41584,0.07196
1124.45148,0.07229
1123.48711,0.07269
1122.52274,0.07317
1121.55838,0.07367
1120.59401,0.07411
1119.62964,0.07441
1118.66528,0.07467
1117.70091,0.07501
1116.73654,0.07550
1115.77218,0.07607
1114.80781,0.07656
1113.84344,0.07694
1112.87908,0.07736
1111.91471,0.07790
1110.95034,0.07843
1109.98598,0.07896
1109.02161,0.07966
1108.05724,0.08043
1107.09288,0.08109
1106.12851,0.08161
1105.16414,0.08209
1104.19978,0.08263
1103.23541,0.08326
1102.27104,0.08402
1101.30668,0.08487
1100.34231,0.08576
1099.37794,0.08660
1098.41358,0.08743
1097.44921,0.08836
1096.48484,0.08932
1095.52048,0.09017
1094.55611,0.09096
1093.59174,0.09180
1092.62738,0.09276
1091.66301,0.09369
1090.69864,0.09452
1089.73428,0.09541
1088.76991,0.09646
1087.80554,0.09745
1086.84118,0.09823
1085.87681,0.09909
1084.91244,0.10009
1083.94808,0.10098
1082.98371,0.10169
1082.01934,0.10236
1081.05498,0.10319
1080.09061,0.10420
1079.12624,0.10524
1078.16188,0.10601
1077.19751,0.10658
1076.23314,0.10726
1075.26878,0.10795
1074.30441,0.10848
1073.34004,0.10893
1072.37568,0.10941
1071.41131,0.10982
1070.44694,0.11006
1069.48258,0.11022
1068.51821,0.11030
1067.55384,0.11026
1066.58948,0.11014
1065.62511,0.10998
1064.66074,0.10981
1063.69638,0.10957
1062.73201,0.10923
1061.76765,0.10886
1060.80328,0.10842
1059.83891,0.10789
1058.87455,0.10739
1057.91018,0.10693
1056.94581,0.10631
1055.98145,0.10547
1055.01708,0.10465
1054.05271,0.10395
1053.08835,0.10318
1052.12398,0.10226
1051.15961,0.10128
1050.19525,0.10036
1049.23088,0.09940
1048.26651,0.09835
1047.30215,0.09725
1046.33778,0.09618
1045.37341,0.09515
1044.40905,0.09414
1043.44468,0.09300
1042.48031,0.09170
1041.51595,0.09045
1040.55158,0.08931
1039.58721,0.08812
1038.62285,0.08684
1037.65848,0.08558
1036.69411,0.08439
1035.72975,0.08320
1034.76538,0.08192
1033.80101,0.08056
1032.83665,0.07924
1031.87228,0.07810
1030.90791,0.07705
1029.94355,0.07589
1028.97918,0.07457
1028.01481,0.07324
1027.05045,0.07207
1026.08608,0.07103
1025.12171,0.06999
1024.15735,0.06886
1023.19298,0.06775
1022.22861,0.06667
1021.26425,0.06565
1020.29988,0.06468
1019.33551,0.06374
1018.37115,0.06280
1017.40678,0.06182
1016.44241,0.06085
1015.47805,0.06003
1014.51368,0.05943
1013.54931,0.05890
1012.58495,0.05826
1011.62058,0.05762
1010.65621,0.05709
1009.69185,0.05658
1008.72748,0.05604
1007.76311,0.05561
1006.79875,0.05534
1005.83438,0.05505
1004.87001,0.05471
1003.90565,0.05442
1002.94128,0.05417
1001.97691,0.05396
1001.01255,0.05379
1000.04818,0.05360
999.08382,0.05339
998.11945,0.05320
997.15508,0.05309
996.19072,0.05302
995.22635,0.05287
994.26198,0.05264
993.29762,0.05245
992.33325,0.05232
991.36888,0.05219
990.40452,0.05195
989.44015,0.05161
988.47578,0.05126
987.51142,0.05103
986.54705,0.05084
985.58268,0.05062
984.61832,0.05032
983.65395,0.04998
982.68958,0.04968
981.72522,0.04939
980.76085,0.04900
979.79648,0.04855
978.83212,0.04813
977.86775,0.04770
976.90338,0.04712
975.93902,0.04647
974.97465,0.04594
974.01028,0.04552
973.04592,0.04504
972.08155,0.04447
971.11718,0.04384
970.15282,0.04310
969.18845,0.04234
968.22408,0.04168
967.25972,0.04104
966.29535,0.04031
965.33098,0.03952
964.36662,0.03879
963.40225,0.03810
962.43788,0.03742
961.47352,0.03672
960.50915,0.03591
959.54478,0.03500
958.58042,0.03421
957.61605,0.03361
956.65168,0.03298
955.68732,0.03221
954.72295,0.03143
953.75858,0.03072
952.79422,0.03005
951.82985,0.02933
950.86548,0.02865
949.90112,0.02813
948.93675,0.02763
947.97238,0.02701
947.00802,0.02636
946.04365,0.02574
945.07928,0.02510
944.11492,0.02448
943.15055,0.02390
942.18618,0.02330
941.22182,0.02264
940.25745,0.02199
939.29308,0.02135
938.32872,0.02073
937.36435,0.02015
936.39998,0.01949
935.43562,0.01883
934.47125,0.01825
933.50689,0.01774
932.54252,0.01726
931.57815,0.01680
930.61379,0.01629
929.64942,0.01569
928.68505,0.01507
927.72069,0.01449
926.75632,0.01401
925.79195,0.01362
924.82759,0.01316
923.86322,0.01261
922.89885,0.01207
921.93449,0.01164
920.97012,0.01121
920.00575,0.01072
919.04139,0.01023
918.07702,0.00978
917.11265,0.00943
916.14829,0.00914
915.18392,0.00880
914.21955,0.00832
913.25519,0.00779
912.29082,0.00734
911.32645,0.00696
910.36209,0.00663
909.39772,0.00627
908.43335,0.00588
907.46899,0.00550
906.50462,0.00514
905.54025,0.00482
904.57589,0.00449
903.61152,0.00410
902.64715,0.00371
901.68279,0.00341
900.71842,0.00318
899.75405,0.00295
898.78969,0.00267
897.82532,0.00241
896.86095,0.00226
895.89659,0.00215
894.93222,0.00193
893.96785,0.00164
893.00349,0.00145
892.03912,0.00135
891.07475,0.00122
890.11039,0.00105
889.14602,0.00100
888.18165,0.00108
887.21729,0.00108
886.25292,0.00089
885.28855,0.00071
884.32419,0.00071
883.35982,0.00080
882.39545,0.00077
881.43109,0.00070
880.46672,0.00073
879.50235,0.00085
878.53799,0.00090
877.57362,0.00091
876.60925,0.00094
875.64489,0.00092
874.68052,0.00087
873.71615,0.00089
872.75179,0.00096
871.78742,0.00111
870.82306,0.00134
869.85869,0.00156
868.89432,0.00174
867.92996,0.00197
866.96559,0.00217
866.00122,0.00228
865.03686,0.00246
864.07249,0.00267
863.10812,0.00283
862.14376,0.00295
861.17939,0.00299
860.21502,0.00298
859.25066,0.00307
858.28629,0.00326
857.32192,0.00342
856.35756,0.00358
855.39319,0.00376
854.42882,0.00390
853.46446,0.00405
852.50009,0.00425
851.53572,0.00440
850.57136,0.00453
849.60699,0.00469
848.64262,0.00480
847.67826,0.00477
846.71389,0.00473
845.74952,0.00482
844.78516,0.00506
843.82079,0.00534
842.85642,0.00546
841.89206,0.00542
840.92769,0.00542
839.96332,0.00557
838.99896,0.00566
838.03459,0.00566
837.07022,0.00578
836.10586,0.00597
835.14149,0.00601
834.17712,0.00599
833.21276,0.00602
832.24839,0.00606
831.28402,0.00603
830.31966,0.00601
829.35529,0.00603
828.39092,0.00606
827.42656,0.00609
826.46219,0.00610
825.49782,0.00607
824.53346,0.00595
823.56909,0.00583
822.60472,0.00576
821.64036,0.00568
820.67599,0.00553
819.71162,0.00531
818.74726,0.00510
817.78289,0.00503
816.81852,0.00506
815.85416,0.00500
814.88979,0.00489
813.92542,0.00489
812.96106,0.00495
811.99669,0.00496
811.03232,0.00497
810.06796,0.00502
809.10359,0.00501
808.13923,0.00487
807.17486,0.00470
806.21049,0.00465
805.24613,0.00468
804.28176,0.00468
803.31739,0.00463
802.35303,0.00451
801.38866,0.00443
800.42429,0.00444
799.45993,0.00448
798.49556,0.00448
797.53119,0.00440
796.56683,0.00424
795.60246,0.00406
794.63809,0.00406
793.67373,0.00421
792.70936,0.00429
791.74499,0.00425
790.78063,0.00419
789.81626,0.00413
788.85189,0.00408
787.88753,0.00409
786.92316,0.00409
785.95879,0.00402
784.99443,0.00400
784.03006,0.00407
783.06569,0.00408
782.10133,0.00393
781.13696,0.00377
780.17259,0.00377
779.20823,0.00387
778.24386,0.00388
777.27949,0.00383
776.31513,0.00387
775.35076,0.00394
774.38639,0.00392
773.42203,0.00392
772.45766,0.00397
771.49329,0.00403
770.52893,0.00402
769.56456,0.00397
768.60019,0.00392
767.63583,0.00392
766.67146,0.00401
765.70709,0.00412
764.74273,0.00421
763.77836,0.00421
762.81399,0.00416
761.84963,0.00418
760.88526,0.00434
759.92089,0.00456
758.95653,0.00468
757.99216,0.00470
757.02779,0.00470
756.06343,0.00476
755.09906,0.00483
754.13469,0.00489
753.17033,0.00501
752.20596,0.00518
751.24159,0.00537
750.27723,0.00563
749.31286,0.00593
748.34849,0.00616
747.38413,0.00635
746.41976,0.00659
745.45540,0.00684
744.49103,0.00700
743.52666,0.00715
742.56230,0.00738
741.59793,0.00760
740.63356,0.00765
739.66920,0.00758
738.70483,0.00758
737.74046,0.00771
736.77610,0.00792
735.81173,0.00812
734.84736,0.00826
733.88300,0.00831
732.91863,0.00832
731.95426,0.00830
730.98990,0.00828
730.02553,0.00832
729.06116,0.00843
728.09680,0.00854
727.13243,0.00865
726.16806,0.00880
725.20370,0.00898
724.23933,0.00913
723.27496,0.00924
722.31060,0.00940
721.34623,0.00975
720.38186,0.01003
719.41750,0.01005
718.45313,0.01004
717.48876,0.01016
716.52440,0.01035
715.56003,0.01057
714.59566,0.01073
713.63130,0.01070
712.66693,0.01061
711.70256,0.01076
710.73820,0.01106
709.77383,0.01131
708.80946,0.01152
707.84510,0.01173
706.88073,0.01191
705.91636,0.01209
704.95200,0.01225
703.98763,0.01235
703.02326,0.01248
702.05890,0.01266
701.09453,0.01271
700.13016,0.01275
699.16580,0.01289
698.20143,0.01300
697.23706,0.01299
696.27270,0.01305
695.30833,0.01324
694.34396,0.01343
693.37960,0.01361
692.41523,0.01378
691.45086,0.01383
690.48650,0.01384
689.52213,0.01397
688.55776,0.01416
687.59340,0.01425
686.62903,0.01424
685.66466,0.01420
684.70030,0.01428
683.73593,0.01443
682.77157,0.01452
681.80720,0.01461
680.84283,0.01472
679.87847,0.01474
678.91410,0.01463
677.94973,0.01459
676.98537,0.01465
676.02100,0.01472
675.05663,0.01482
674.09227,0.01491
673.12790,0.01487
672.16353,0.01463
671.19917,0.01463
670.23480,0.01571
669.27043,0.01874
668.30607,0.01947
667.34170,0.01733
666.37733,0.01462
665.41297,0.01457
664.44860,0.01491
663.48423,0.01515
662.51987,0.01534
661.55550,0.01539
660.59113,0.01540
659.62677,0.01558
658.66240,0.01584
657.69803,0.01599
656.73367,0.01602
655.76930,0.01614
654.80493,0.01632
653.84057,0.01647
652.87620,0.01660
651.91183,0.01670
650.94747,0.01682
649.98310,0.01688
649.01873,0.01687
648.05437,0.01687
647.09000,0.01693
646.12563,0.01703
645.16127,0.01715
644.19690,0.01722
643.23253,0.01719
642.26817,0.01714
641.30380,0.01717
640.33943,0.01722
639.37507,0.01727
638.41070,0.01732
637.44633,0.01750
636.48197,0.01774
635.51760,0.01777
634.55323,0.01764
633.58887,0.01770
632.62450,0.01800
631.66013,0.01820
630.69577,0.01825
629.73140,0.01829
628.76703,0.01845
627.80267,0.01860
626.83830,0.01857
625.87393,0.01844
624.90957,0.01836
623.94520,0.01847
622.98083,0.01872
622.01647,0.01905
621.05210,0.01934
620.08774,0.01943
619.12337,0.01945
618.15900,0.01951
617.19464,0.01954
616.23027,0.01938
615.26590,0.01920
614.30154,0.01930
613.33717,0.01951
612.37280,0.01967
611.40844,0.01976
610.44407,0.01974
609.47970,0.01956
608.51534,0.01933
607.55097,0.01918
606.58660,0.01920
605.62224,0.01951
604.65787,0.01979
603.69350,0.01975
602.72914,0.01952
601.76477,0.01937
600.80040,0.01929
599.83604,0.01924
598.87167,0.01924
597.90730,0.01925
596.94294,0.01931
595.97857,0.01942
595.01420,0.01946
594.04984,0.01938
593.08547,0.01932
592.12110,0.01939
591.15674,0.01932
590.19237,0.01906
589.22800,0.01896
588.26364,0.01905
587.29927,0.01908
586.33490,0.01906
585.37054,0.01913
584.40617,0.01914
583.44180,0.01914
582.47744,0.01930
581.51307,0.01947
580.54870,0.01953
579.58434,0.01944
578.61997,0.01924
577.65560,0.01903
576.69124,0.01894
575.72687,0.01886
574.76250,0.01876
573.79814,0.01873
572.83377,0.01872
571.86940,0.01873
570.90504,0.01884
569.94067,0.01907
568.97630,0.01918
568.01194,0.01905
567.04757,0.01887
566.08320,0.01869
565.11884,0.01859
564.15447,0.01853
563.19010,0.01851
562.22574,0.01860
561.26137,0.01874
560.29700,0.01882
559.33264,0.01874
558.36827,0.01877
557.40390,0.01893
556.43954,0.01889
555.47517,0.01869
554.51081,0.01846
553.54644,0.01831
552.58207,0.01827
551.61771,0.01844
550.65334,0.01857
549.68897,0.01830
548.72461,0.01796
547.76024,0.01796
546.79587,0.01814
545.83151,0.01796
544.86714,0.01757
543.90277,0.01765
542.93841,0.01811
541.97404,0.01842
541.00967,0.01848
540.04531,0.01844
539.08094,0.01831
538.11657,0.01814
537.15221,0.01814
536.18784,0.01815
535.22347,0.01813
534.25911,0.01831
533.29474,0.01856
532.33037,0.01848
531.36601,0.01797
530.40164,0.01755
529.43727,0.01749
528.47291,0.01787
527.50854,0.01847
526.54417,0.01857
525.57981,0.01806
524.61544,0.01757
523.65107,0.01747
522.68671,0.01764
521.72234,0.01801
520.75797,0.01844
519.79361,0.01846
518.82924,0.01796
517.86487,0.01740
516.90051,0.01717
515.93614,0.01710
514.97177,0.01689
514.00741,0.01694
513.04304,0.01736
512.07867,0.01748
511.11431,0.01722
510.14994,0.01722
509.18557,0.01748
508.22121,0.01727
507.25684,0.01681
506.29247,0.01685
505.32811,0.01705
504.36374,0.01678
503.39937,0.01632
502.43501,0.01617
501.47064,0.01625
500.50627,0.01644
499.54191,0.01669
498.57754,0.01664
497.61317,0.01634
496.64881,0.01617
495.68444,0.01604
494.72007,0.01590
493.75571,0.01600
492.79134,0.01645
491.82698,0.01706
490.86261,0.01729
489.89824,0.01681
488.93388,0.01630
487.96951,0.01648
487.00514,0.01673
486.04078,0.01627
485.07641,0.01554
484.11204,0.01524
483.14768,0.01517
482.18331,0.01505
481.21894,0.01518
480.25458,0.01558
479.29021,0.01547
478.32584,0.01490
477.36148,0.01477
476.39711,0.01468
475.43274,0.01426
474.46838,0.01406
473.50401,0.01446
472.53964,0.01492
471.57528,0.01461
470.61091,0.01390
469.64654,0.01388
468.68218,0.01437
467.71781,0.01411
466.75344,0.01304
465.78908,0.01268
464.82471,0.01336
463.86034,0.01397
462.89598,0.01396
461.93161,0.01370
460.96724,0.01368
460.00288,0.01418
459.03851,0.01507
458.07414,0.01455
457.10978,0.01292
456.14541,0.01207
455.18104,0.01266
454.21668,0.01339
453.25231,0.01363
452.28794,0.01334
451.32358,0.01308
450.35921,0.01317
449.39484,0.01272
448.43048,0.01178
447.46611,0.01159
446.50174,0.01163
445.53738,0.01119
444.57301,0.01132
443.60864,0.01214
442.64428,0.01254
441.67991,0.01202
440.71554,0.01137
439.75118,0.01115
438.78681,0.01074
437.82244,0.00990
436.85808,0.00958
435.89371,0.01010
434.92934,0.01027
433.96498,0.00941
433.00061,0.00887
432.03624,0.00895
431.07188,0.00860
430.10751,0.00836
429.14315,0.00893
428.17878,0.00875
427.21441,0.00686
426.25005,0.00577
425.28568,0.00702
424.32131,0.00828
423.35695,0.00803
422.39258,0.00736
421.42821,0.00734
420.46385,0.00847
419.49948,0.00996
418.53511,0.01087
417.57075,0.01072
416.60638,0.00910
415.64201,0.00647
414.67765,0.00427
413.71328,0.00334
412.74891,0.00324
411.78455,0.00359
410.82018,0.00445
409.85581,0.00543
408.89145,0.00499
407.92708,0.00265
406.96271,0.00066
405.99835,0.00112
405.03398,0.00216
404.06961,0.00181
403.10525,0.00122
402.14088,0.00096
401.17651,0.00060
400.21215,0.00060
399.24778,0.00060
