1900.76660,0.00543
1899.80223,0.00539
1898.83787,0.00536
1897.87350,0.00532
1896.90913,0.00529
1895.94477,0.00525
1894.98040,0.00522
1894.01603,0.00518
1893.05167,0.00515
1892.08730,0.00511
1891.12293,0.00508
1890.15857,0.00504
1889.19420,0.00500
1888.22983,0.00497
1887.26547,0.00493
1886.30110,0.00490
1885.33673,0.00486
1884.37237,0.00483
1883.40800,0.00479
1882.44364,0.00476
1881.47927,0.00472
1880.51490,0.00450
1879.55054,0.00458
1878.58617,0.00470
1877.62180,0.00460
1876.65744,0.00455
1875.69307,0.00478
1874.72870,0.00510
1873.76434,0.00518
1872.79997,0.00501
1871.83560,0.00486
1870.87124,0.00486
1869.90687,0.00483
1868.94250,0.00446
1867.97814,0.00395
1867.01377,0.00384
1866.04940,0.00415
1865.08504,0.00435
1864.12067,0.00400
1863.15630,0.00343
1862.19194,0.00330
1861.22757,0.00374
1860.26320,0.00412
1859.29884,0.00397
1858.33447,0.00360
1857.37010,0.00350
1856.40574,0.00359
1855.44137,0.00351
1854.47700,0.00323
1853.51264,0.00308
1852.54827,0.00317
1851.58390,0.00330
1850.61954,0.00324
1849.65517,0.00320
1848.69080,0.00332
1847.72644,0.00346
1846.76207,0.00363
1845.79770,0.00363
1844.83334,0.00309
1843.86897,0.00209
1842.90460,0.00160
1841.94024,0.00185
1840.97587,0.00217
1840.01150,0.00219
1839.04714,0.00217
1838.08277,0.00218
1837.11840,0.00208
1836.15404,0.00186
1835.18967,0.00168
1834.22530,0.00159
1833.26094,0.00169
1832.29657,0.00213
1831.33220,0.00255
1830.36784,0.00219
1829.40347,0.00100
1828.43910,0.00032
1827.47474,0.00088
1826.51037,0.00168
1825.54600,0.00149
1824.58164,0.00065
1823.61727,0.00043
1822.65290,0.00089
1821.68854,0.00126
1820.72417,0.00122
1819.75981,0.00101
1818.79544,0.00079
1817.83107,0.00062
1816.86671,0.00059
1815.90234,0.00064
1814.93797,0.00072
1813.97361,0.00086
1813.00924,0.00111
1812.04487,0.00124
1811.08051,0.00095
1810.11614,0.00045
1809.15177,0.00028
1808.18741,0.00046
1807.22304,0.00058
1806.25867,0.00053
1805.29431,0.00060
1804.32994,0.00086
1803.36557,0.00100
1802.40121,0.00089
1801.43684,0.00072
1800.47247,0.00053
1799.50811,0.00022
1798.54374,0.00013
1797.57937,0.00046
1796.61501,0.00075
1795.65064,0.00081
1794.68627,0.00120
1793.72191,0.00174
1792.75754,0.00154
1791.79317,0.00064
1790.82881,0.00011
1789.86444,0.00032
1788.90007,0.00091
1787.93571,0.00156
1786.97134,0.00216
1786.00697,0.00243
1785.04261,0.00234
1784.07824,0.00233
1783.11387,0.00277
1782.14951,0.00329
1781.18514,0.00338
1780.22077,0.00317
1779.25641,0.00323
1778.29204,0.00376
1777.32767,0.00437
1776.36331,0.00466
1775.39894,0.00500
1774.43457,0.00585
1773.47021,0.00653
1772.50584,0.00610
1771.54147,0.00528
1770.57711,0.00567
1769.61274,0.00715
1768.64837,0.00817
1767.68401,0.00819
1766.71964,0.00825
1765.75527,0.00887
1764.79091,0.00986
1763.82654,0.01085
1762.86217,0.01131
1761.89781,0.01098
1760.93344,0.01064
1759.96907,0.01132
1759.00471,0.01270
1758.04034,0.01369
1757.07597,0.01387
1756.11161,0.01379
1755.14724,0.01415
1754.18288,0.01515
1753.21851,0.01638
1752.25414,0.01707
1751.28978,0.01699
1750.32541,0.01689
1749.36104,0.01731
1748.39668,0.01773
1747.43231,0.01782
1746.46794,0.01809
1745.50358,0.01884
1744.53921,0.01952
1743.57484,0.01965
1742.61048,0.01975
1741.64611,0.02031
1740.68174,0.02074
1739.71738,0.02047
1738.75301,0.02029
1737.78864,0.02092
1736.82428,0.02239
1735.85991,0.02360
1734.89554,0.02338
1733.93118,0.02166
1732.96681,0.02079
1732.00244,0.02177
1731.03808,0.02316
1730.07371,0.02340
1729.10934,0.02316
1728.14498,0.02327
1727.18061,0.02353
1726.21624,0.02365
1725.25188,0.02368
1724.28751,0.02362
1723.32314,0.02338
1722.35878,0.02315
1721.39441,0.02326
1720.43004,0.02397
1719.46568,0.02444
1718.50131,0.02359
1717.53694,0.02188
1716.57258,0.02123
1715.60821,0.02142
1714.64384,0.02113
1713.67948,0.02028
1712.71511,0.02007
1711.75074,0.02026
1710.78638,0.02003
1709.82201,0.01947
1708.85764,0.01931
1707.89328,0.01947
1706.92891,0.01923
1705.96454,0.01835
1705.00018,0.01733
1704.03581,0.01651
1703.07144,0.01714
1702.10708,0.01837
1701.14271,0.01790
1700.17834,0.01468
1699.21398,0.01268
1698.24961,0.01389
1697.28524,0.01562
1696.32088,0.01479
1695.35651,0.01251
1694.39214,0.01176
1693.42778,0.01243
1692.46341,0.01306
1691.49905,0.01289
1690.53468,0.01256
1689.57031,0.01220
1688.60595,0.01175
1687.64158,0.01170
1686.67721,0.01278
1685.71285,0.01361
1684.74848,0.01228
1683.78411,0.00940
1682.81975,0.00841
1681.85538,0.00965
1680.89101,0.01102
1679.92665,0.01102
1678.96228,0.01071
1677.99791,0.01119
1677.03355,0.01206
1676.06918,0.01198
1675.10481,0.01066
1674.14045,0.01005
1673.17608,0.01088
1672.21171,0.01207
1671.24735,0.01252
1670.28298,0.01237
1669.31861,0.01179
1668.35425,0.01129
1667.38988,0.01167
1666.42551,0.01258
1665.46115,0.01352
1664.49678,0.01422
1663.53241,0.01444
1662.56805,0.01408
1661.60368,0.01401
1660.63931,0.01473
1659.67495,0.01567
1658.71058,0.01633
1657.74621,0.01682
1656.78185,0.01747
1655.81748,0.01914
1654.85311,0.02063
1653.88875,0.02006
1652.92438,0.01739
1651.96001,0.01654
1650.99565,0.01854
1650.03128,0.02149
1649.06691,0.02325
1648.10255,0.02400
1647.13818,0.02399
1646.17381,0.02362
1645.20945,0.02387
1644.24508,0.02515
1643.28071,0.02689
1642.31635,0.02825
1641.35198,0.02919
1640.38761,0.03008
1639.42325,0.03112
1638.45888,0.03245
1637.49451,0.03390
1636.53015,0.03475
1635.56578,0.03467
1634.60141,0.03476
1633.63705,0.03629
1632.67268,0.03851
1631.70831,0.04028
1630.74395,0.04163
1629.77958,0.04323
1628.81522,0.04469
1627.85085,0.04557
1626.88648,0.04646
1625.92212,0.04817
1624.95775,0.05026
1623.99338,0.05170
1623.02902,0.05252
1622.06465,0.05381
1621.10028,0.05572
1620.13592,0.05770
1619.17155,0.05981
1618.20718,0.06188
1617.24282,0.06311
1616.27845,0.06351
1615.31408,0.06467
1614.34972,0.06694
1613.38535,0.06938
1612.42098,0.07135
1611.45662,0.07318
1610.49225,0.07494
1609.52788,0.07657
1608.56352,0.07817
1607.59915,0.07994
1606.63478,0.08181
1605.67042,0.08377
1604.70605,0.08573
1603.74168,0.08761
1602.77732,0.08943
1601.81295,0.09122
1600.84858,0.09299
1599.88422,0.09469
1598.91985,0.09639
1597.95548,0.09808
1596.99112,0.09972
1596.02675,0.10137
1595.06238,0.10297
1594.09802,0.10450
1593.13365,0.10592
1592.16928,0.10725
1591.20492,0.10840
1590.24055,0.10942
1589.27618,0.11052
1588.31182,0.11175
1587.34745,0.11291
1586.38308,0.11383
1585.41872,0.11466
1584.45435,0.11552
1583.48998,0.11629
1582.52562,0.11687
1581.56125,0.11734
1580.59688,0.11776
1579.63252,0.11822
1578.66815,0.11921
1577.70378,0.12009
1576.73942,0.11970
1575.77505,0.11817
1574.81068,0.11769
1573.84632,0.11845
1572.88195,0.11932
1571.91758,0.11990
1570.95322,0.12019
1569.98885,0.11944
1569.02448,0.11787
1568.06012,0.11725
1567.09575,0.11777
1566.13139,0.11807
1565.16702,0.11729
1564.20265,0.11625
1563.23829,0.11591
1562.27392,0.11680
1561.30955,0.11805
1560.34519,0.11802
1559.38082,0.11538
1558.41645,0.11186
1557.45209,0.11005
1556.48772,0.11104
1555.52335,0.11230
1554.55899,0.11179
1553.59462,0.11015
1552.63025,0.10965
1551.66589,0.11007
1550.70152,0.10984
1549.73715,0.10851
1548.77279,0.10732
1547.80842,0.10708
1546.84405,0.10724
1545.87969,0.10668
1544.91532,0.10549
1543.95095,0.10471
1542.98659,0.10434
1542.02222,0.10401
1541.05785,0.10333
1540.09349,0.10186
1539.12912,0.09951
1538.16475,0.09814
1537.20039,0.09849
1536.23602,0.09970
1535.27165,0.10005
1534.30729,0.09908
1533.34292,0.09716
1532.37855,0.09581
1531.41419,0.09566
1530.44982,0.09604
1529.48545,0.09595
1528.52109,0.09538
1527.55672,0.09475
1526.59235,0.09417
1525.62799,0.09337
1524.66362,0.09278
1523.69925,0.09297
1522.73489,0.09305
1521.77052,0.09165
1520.80615,0.08939
1519.84179,0.08858
1518.87742,0.08943
1517.91305,0.08984
1516.94869,0.08857
1515.98432,0.08720
1515.01995,0.08708
1514.05559,0.08758
1513.09122,0.08750
1512.12685,0.08684
1511.16249,0.08638
1510.19812,0.08643
1509.23375,0.08682
1508.26939,0.08683
1507.30502,0.08550
1506.34065,0.08300
1505.37629,0.08131
1504.41192,0.08167
1503.44756,0.08289
1502.48319,0.08334
1501.51882,0.08323
1500.55446,0.08311
1499.59009,0.08278
1498.62572,0.08222
1497.66136,0.08177
1496.69699,0.08126
1495.73262,0.08040
1494.76826,0.08001
1493.80389,0.08030
1492.83952,0.08088
1491.87516,0.08107
1490.91079,0.08060
1489.94642,0.07963
1488.98206,0.07897
1488.01769,0.07878
1487.05332,0.07848
1486.08896,0.07815
1485.12459,0.07815
1484.16022,0.07838
1483.19586,0.07848
1482.23149,0.07829
1481.26712,0.07782
1480.30276,0.07728
1479.33839,0.07722
1478.37402,0.07764
1477.40966,0.07776
1476.44529,0.07717
1475.48092,0.07675
1474.51656,0.07720
1473.55219,0.07744
1472.58782,0.07655
1471.62346,0.07551
1470.65909,0.07566
1469.69472,0.07659
1468.73036,0.07714
1467.76599,0.07731
1466.80162,0.07754
1465.83726,0.07748
1464.87289,0.07676
1463.90852,0.07605
1462.94416,0.07610
1461.97979,0.07655
1461.01542,0.07697
1460.05106,0.07738
1459.08669,0.07763
1458.12232,0.07709
1457.15796,0.07569
1456.19359,0.07448
1455.22922,0.07450
1454.26486,0.07538
1453.30049,0.07609
1452.33612,0.07616
1451.37176,0.07605
1450.40739,0.07622
1449.44302,0.07647
1448.47866,0.07626
1447.51429,0.07574
1446.54992,0.07562
1445.58556,0.07593
1444.62119,0.07620
1443.65682,0.07629
1442.69246,0.07640
1441.72809,0.07646
1440.76373,0.07633
1439.79936,0.07637
1438.83499,0.07701
1437.87063,0.07743
1436.90626,0.07664
1435.94189,0.07539
1434.97753,0.07533
1434.01316,0.07604
1433.04879,0.07644
1432.08443,0.07652
1431.12006,0.07669
1430.15569,0.07668
1429.19133,0.07648
1428.22696,0.07645
1427.26259,0.07671
1426.29823,0.07715
1425.33386,0.07753
1424.36949,0.07753
1423.40513,0.07723
1422.44076,0.07737
1421.47639,0.07823
1420.51203,0.07878
1419.54766,0.07818
1418.58329,0.07722
1417.61893,0.07718
1416.65456,0.07781
1415.69019,0.07837
1414.72583,0.07865
1413.76146,0.07893
1412.79709,0.07917
1411.83273,0.07929
1410.86836,0.07937
1409.90399,0.07953
1408.93963,0.07978
1407.97526,0.08014
1407.01089,0.08058
1406.04653,0.08087
1405.08216,0.08085
1404.11779,0.08075
1403.15343,0.08096
1402.18906,0.08149
1401.22469,0.08211
1400.26033,0.08245
1399.29596,0.08230
1398.33159,0.08213
1397.36723,0.08261
1396.40286,0.08338
1395.43849,0.08359
1394.47413,0.08327
1393.50976,0.08333
1392.54539,0.08399
1391.58103,0.08468
1390.61666,0.08512
1389.65229,0.08559
1388.68793,0.08597
1387.72356,0.08592
1386.75919,0.08569
1385.79483,0.08593
1384.83046,0.08656
1383.86609,0.08713
1382.90173,0.08754
1381.93736,0.08794
1380.97299,0.08836
1380.00863,0.08877
1379.04426,0.08915
1378.07989,0.08952
1377.11553,0.09000
1376.15116,0.09064
1375.18680,0.09112
1374.22243,0.09121
1373.25806,0.09116
1372.29370,0.09144
1371.32933,0.09207
1370.36496,0.09272
1369.40060,0.09318
1368.43623,0.09350
1367.47186,0.09382
1366.50750,0.09425
1365.54313,0.09485
1364.57876,0.09543
1363.61440,0.09571
1362.65003,0.09576
1361.68566,0.09594
1360.72130,0.09637
1359.75693,0.09691
1358.79256,0.09744
1357.82820,0.09793
1356.86383,0.09843
1355.89946,0.09894
1354.93510,0.09938
1353.97073,0.09976
1353.00636,0.10021
1352.04200,0.10081
1351.07763,0.10140
1350.11326,0.10190
1349.14890,0.10234
1348.18453,0.10284
1347.22016,0.10341
1346.25580,0.10390
1345.29143,0.10433
1344.32706,0.10482
1343.36270,0.10549
1342.39833,0.10621
1341.43396,0.10674
1340.46960,0.10700
1339.50523,0.10717
1338.54086,0.10757
1337.57650,0.10818
1336.61213,0.10881
1335.64776,0.10941
1334.68340,0.11000
1333.71903,0.11049
1332.75466,0.11086
1331.79030,0.11133
1330.82593,0.11201
1329.86156,0.11278
1328.89720,0.11352
1327.93283,0.11421
1326.96846,0.11485
1326.00410,0.11540
1325.03973,0.11595
1324.07536,0.11658
1323.11100,0.11725
1322.14663,0.11796
1321.18226,0.11868
1320.21790,0.11935
1319.25353,0.11992
1318.28916,0.12048
1317.32480,0.12117
1316.36043,0.12199
1315.39606,0.12281
1314.43170,0.12355
1313.46733,0.12426
1312.50297,0.12498
1311.53860,0.12579
1310.57423,0.12668
1309.60987,0.12757
1308.64550,0.12837
1307.68113,0.12912
1306.71677,0.12990
1305.75240,0.13069
1304.78803,0.13146
1303.82367,0.13225
1302.85930,0.13304
1301.89493,0.13381
1300.93057,0.13457
1299.96620,0.13538
1299.00183,0.13624
1298.03747,0.13708
1297.07310,0.13790
1296.10873,0.13872
1295.14437,0.13960
1294.18000,0.14052
1293.21563,0.14143
1292.25127,0.14228
1291.28690,0.14317
1290.32253,0.14415
1289.35817,0.14515
1288.39380,0.14605
1287.42943,0.14686
1286.46507,0.14767
1285.50070,0.14852
1284.53633,0.14938
1283.57197,0.15024
1282.60760,0.15116
1281.64323,0.15212
1280.67887,0.15302
1279.71450,0.15381
1278.75013,0.15454
1277.78577,0.15537
1276.82140,0.15632
1275.85703,0.15723
1274.89267,0.15799
1273.92830,0.15870
1272.96393,0.15944
1271.99957,0.16025
1271.03520,0.16111
1270.07083,0.16201
1269.10647,0.16290
1268.14210,0.16378
1267.17773,0.16466
1266.21337,0.16544
1265.24900,0.16609
1264.28463,0.16672
1263.32027,0.16745
1262.35590,0.16818
1261.39153,0.16884
1260.42717,0.16951
1259.46280,0.17028
1258.49843,0.17105
1257.53407,0.17169
1256.56970,0.17223
1255.60533,0.17280
1254.64097,0.17344
1253.67660,0.17409
1252.71223,0.17470
1251.74787,0.17525
1250.78350,0.17576
1249.81914,0.17623
1248.85477,0.17672
1247.89040,0.17726
1246.92604,0.17784
1245.96167,0.17837
1244.99730,0.17879
1244.03294,0.17908
1243.06857,0.17935
1242.10420,0.17971
1241.13984,0.18005
1240.17547,0.18029
1239.21110,0.18052
1238.24674,0.18085
1237.28237,0.18124
1236.31800,0.18155
1235.35364,0.18172
1234.38927,0.18182
1233.42490,0.18193
1232.46054,0.18205
1231.49617,0.18219
1230.53180,0.18236
1229.56744,0.18251
1228.60307,0.18256
1227.63870,0.18258
1226.67434,0.18264
1225.70997,0.18269
1224.74560,0.18262
1223.78124,0.18250
1222.81687,0.18242
1221.85250,0.18239
1220.88814,0.18242
1219.92377,0.18252
1218.95940,0.18255
1217.99504,0.18240
1217.03067,0.18205
1216.06630,0.18168
1215.10194,0.18145
1214.13757,0.18140
1213.17320,0.18141
1212.20884,0.18135
1211.24447,0.18118
1210.28010,0.18092
1209.31574,0.18064
1208.35137,0.18039
1207.38700,0.18019
1206.42264,0.17999
1205.45827,0.17972
1204.49390,0.17939
1203.52954,0.17909
1202.56517,0.17881
1201.60080,0.17843
1200.63644,0.17798
1199.67207,0.17765
1198.70770,0.17751
1197.74334,0.17739
1196.77897,0.17709
1195.81460,0.17666
1194.85024,0.17622
1193.88587,0.17587
1192.92150,0.17556
1191.95714,0.17524
1190.99277,0.17495
1190.02840,0.17472
1189.06404,0.17451
1188.09967,0.17420
1187.13531,0.17377
1186.17094,0.17332
1185.20657,0.17293
1184.24221,0.17259
1183.27784,0.17219
1182.31347,0.17173
1181.34911,0.17124
1180.38474,0.17087
1179.42037,0.17065
1178.45601,0.17048
1177.49164,0.17017
1176.52727,0.16973
1175.56291,0.16931
1174.59854,0.16895
1173.63417,0.16859
1172.66981,0.16820
1171.70544,0.16781
1170.74107,0.16736
1169.77671,0.16687
1168.81234,0.16648
1167.84797,0.16622
1166.88361,0.16597
1165.91924,0.16564
1164.95487,0.16527
1163.99051,0.16489
1163.02614,0.16450
1162.06177,0.16411
1161.09741,0.16379
1160.13304,0.16344
1159.16867,0.16293
1158.20431,0.16236
1157.23994,0.16191
1156.27557,0.16158
1155.31121,0.16123
1154.34684,0.16084
1153.38247,0.16040
1152.41811,0.15985
1151.45374,0.15927
1150.48937,0.15880
1149.52501,0.15851
1148.56064,0.15824
1147.59627,0.15787
1146.63191,0.15744
1145.66754,0.15714
1144.70317,0.15696
1143.73881,0.15668
1142.77444,0.15619
1141.81007,0.15564
1140.84571,0.15517
1139.88134,0.15479
1138.91697,0.15441
1137.95261,0.15394
1136.98824,0.15345
1136.02387,0.15304
1135.05951,0.15262
1134.09514,0.15213
1133.13077,0.15171
1132.16641,0.15141
1131.20204,0.15102
1130.23767,0.15051
1129.27331,0.15009
1128.30894,0.14971
1127.34457,0.14920
1126.38021,0.14862
1125.41584,0.14814
1124.45148,0.14771
1123.48711,0.14723
1122.52274,0.14676
1121.55838,0.14635
1120.59401,0.14593
1119.62964,0.14542
1118.66528,0.14489
1117.70091,0.14439
1116.73654,0.14389
1115.77218,0.14336
1114.80781,0.14274
1113.84344,0.14210
1112.87908,0.14155
1111.91471,0.14111
1110.95034,0.14071
1109.98598,0.14029
1109.02161,0.13984
1108.05724,0.13928
1107.09288,0.13865
1106.12851,0.13804
1105.16414,0.13739
1104.19978,0.13667
1103.23541,0.13599
1102.27104,0.13556
1101.30668,0.13536
1100.34231,0.13518
1099.37794,0.13485
1098.41358,0.13437
1097.44921,0.13388
1096.48484,0.13347
1095.52048,0.13302
1094.55611,0.13240
1093.59174,0.13170
1092.62738,0.13112
1091.66301,0.13071
1090.69864,0.13034
1089.73428,0.12985
1088.76991,0.12925
1087.80554,0.12871
1086.84118,0.12831
1085.87681,0.12792
1084.91244,0.12743
1083.94808,0.12690
1082.98371,0.12650
1082.01934,0.12622
1081.05498,0.12590
1080.09061,0.12545
1079.12624,0.12496
1078.16188,0.12447
1077.19751,0.12398
1076.23314,0.12363
1075.26878,0.12355
1074.30441,0.12355
1073.34004,0.12325
1072.37568,0.12263
1071.41131,0.12194
1070.44694,0.12139
1069.48258,0.12094
1068.51821,0.12056
1067.55384,0.12015
1066.58948,0.11957
1065.62511,0.11885
1064.66074,0.11818
1063.69638,0.11776
1062.73201,0.11751
1061.76765,0.11720
1060.80328,0.11667
1059.83891,0.11596
1058.87455,0.11535
1057.91018,0.11502
1056.94581,0.11483
1055.98145,0.11449
1055.01708,0.11387
1054.05271,0.11313
1053.08835,0.11252
1052.12398,0.11215
1051.15961,0.11191
1050.19525,0.11159
1049.23088,0.11113
1048.26651,0.11066
1047.30215,0.11031
1046.33778,0.11001
1045.37341,0.10965
1044.40905,0.10931
1043.44468,0.10909
1042.48031,0.10885
1041.51595,0.10842
1040.55158,0.10790
1039.58721,0.10746
1038.62285,0.10708
1037.65848,0.10672
1036.69411,0.10635
1035.72975,0.10600
1034.76538,0.10571
1033.80101,0.10546
1032.83665,0.10517
1031.87228,0.10474
1030.90791,0.10420
1029.94355,0.10363
1028.97918,0.10315
1028.01481,0.10274
1027.05045,0.10234
1026.08608,0.10193
1025.12171,0.10152
1024.15735,0.10114
1023.19298,0.10073
1022.22861,0.10029
1021.26425,0.09988
1020.29988,0.09953
1019.33551,0.09921
1018.37115,0.09891
1017.40678,0.09854
1016.44241,0.09804
1015.47805,0.09751
1014.51368,0.09709
1013.54931,0.09677
1012.58495,0.09645
1011.62058,0.09611
1010.65621,0.09577
1009.69185,0.09539
1008.72748,0.09498
1007.76311,0.09460
1006.79875,0.09424
1005.83438,0.09384
1004.87001,0.09340
1003.90565,0.09299
1002.94128,0.09264
1001.97691,0.09232
1001.01255,0.09202
1000.04818,0.09170
999.08382,0.09133
998.11945,0.09086
997.15508,0.09038
996.19072,0.09004
995.22635,0.08979
994.26198,0.08945
993.29762,0.08901
992.33325,0.08860
991.36888,0.08829
990.40452,0.08804
989.44015,0.08777
988.47578,0.08741
987.51142,0.08698
986.54705,0.08655
985.58268,0.08619
984.61832,0.08589
983.65395,0.08565
982.68958,0.08544
981.72522,0.08516
980.76085,0.08478
979.79648,0.08440
978.83212,0.08411
977.86775,0.08386
976.90338,0.08355
975.93902,0.08313
974.97465,0.08268
974.01028,0.08229
973.04592,0.08200
972.08155,0.08179
971.11718,0.08151
970.15282,0.08109
969.18845,0.08062
968.22408,0.08025
967.25972,0.07996
966.29535,0.07966
965.33098,0.07933
964.36662,0.07898
963.40225,0.07863
962.43788,0.07824
961.47352,0.07785
960.50915,0.07757
959.54478,0.07741
958.58042,0.07717
957.61605,0.07679
956.65168,0.07636
955.68732,0.07597
954.72295,0.07566
953.75858,0.07544
952.79422,0.07528
951.82985,0.07512
950.86548,0.07487
949.90112,0.07457
948.93675,0.07432
947.97238,0.07413
947.00802,0.07385
946.04365,0.07347
945.07928,0.07317
944.11492,0.07301
943.15055,0.07281
942.18618,0.07257
941.22182,0.07246
940.25745,0.07242
939.29308,0.07222
938.32872,0.07188
937.36435,0.07162
936.39998,0.07149
935.43562,0.07137
934.47125,0.07114
933.50689,0.07083
932.54252,0.07055
931.57815,0.07029
930.61379,0.07004
929.64942,0.06996
928.68505,0.07004
927.72069,0.07008
926.75632,0.06988
925.79195,0.06953
924.82759,0.06924
923.86322,0.06912
922.89885,0.06906
921.93449,0.06891
920.97012,0.06869
920.00575,0.06857
919.04139,0.06861
918.07702,0.06865
917.11265,0.06853
916.14829,0.06827
915.18392,0.06801
914.21955,0.06784
913.25519,0.06772
912.29082,0.06761
911.32645,0.06750
910.36209,0.06734
909.39772,0.06713
908.43335,0.06691
907.46899,0.06671
906.50462,0.06648
905.54025,0.06626
904.57589,0.06614
903.61152,0.06608
902.64715,0.06604
901.68279,0.06601
900.71842,0.06594
899.75405,0.06573
898.78969,0.06544
897.82532,0.06522
896.86095,0.06515
895.89659,0.06515
894.93222,0.06511
893.96785,0.06498
893.00349,0.06476
892.03912,0.06455
891.07475,0.06437
890.11039,0.06421
889.14602,0.06407
888.18165,0.06400
887.21729,0.06395
886.25292,0.06378
885.28855,0.06350
884.32419,0.06332
883.35982,0.06336
882.39545,0.06343
881.43109,0.06328
880.46672,0.06287
879.50235,0.06243
878.53799,0.06219
877.57362,0.06213
876.60925,0.06205
875.64489,0.06182
874.68052,0.06150
873.71615,0.06121
872.75179,0.06087
871.78742,0.06045
870.82306,0.06009
869.85869,0.05989
868.89432,0.05973
867.92996,0.05949
866.96559,0.05929
866.00122,0.05920
865.03686,0.05916
864.07249,0.05913
863.10812,0.05912
862.14376,0.05901
861.17939,0.05869
860.21502,0.05839
859.25066,0.05834
858.28629,0.05847
857.32192,0.05847
856.35756,0.05826
855.39319,0.05804
854.42882,0.05787
853.46446,0.05768
852.50009,0.05749
851.53572,0.05741
850.57136,0.05744
849.60699,0.05751
848.64262,0.05749
847.67826,0.05732
846.71389,0.05712
845.74952,0.05699
844.78516,0.05685
843.82079,0.05653
842.85642,0.05615
841.89206,0.05592
840.92769,0.05590
839.96332,0.05599
838.99896,0.05606
838.03459,0.05607
837.07022,0.05599
836.10586,0.05580
835.14149,0.05556
834.17712,0.05532
833.21276,0.05505
832.24839,0.05480
831.28402,0.05471
830.31966,0.05475
829.35529,0.05477
828.39092,0.05468
827.42656,0.05450
826.46219,0.05431
825.49782,0.05410
824.53346,0.05383
823.56909,0.05360
822.60472,0.05354
821.64036,0.05353
820.67599,0.05335
819.71162,0.05302
818.74726,0.05284
817.78289,0.05286
816.81852,0.05282
815.85416,0.05257
814.88979,0.05226
813.92542,0.05207
812.96106,0.05199
811.99669,0.05192
811.03232,0.05180
810.06796,0.05163
809.10359,0.05150
808.13923,0.05135
807.17486,0.05114
806.21049,0.05095
805.24613,0.05081
804.28176,0.05061
803.31739,0.05032
802.35303,0.05003
801.38866,0.04979
800.42429,0.04961
799.45993,0.04949
798.49556,0.04939
797.53119,0.04930
796.56683,0.04922
795.60246,0.04910
794.63809,0.04885
793.67373,0.04850
792.70936,0.04830
791.74499,0.04837
790.78063,0.04851
789.81626,0.04851
788.85189,0.04845
787.88753,0.04847
786.92316,0.04847
785.95879,0.04823
784.99443,0.04780
784.03006,0.04751
783.06569,0.04751
782.10133,0.04764
781.13696,0.04767
780.17259,0.04752
779.20823,0.04728
778.24386,0.04705
777.27949,0.04689
776.31513,0.04681
775.35076,0.04671
774.38639,0.04654
773.42203,0.04640
772.45766,0.04637
771.49329,0.04636
770.52893,0.04625
769.56456,0.04608
768.60019,0.04595
767.63583,0.04582
766.67146,0.04558
765.70709,0.04529
764.74273,0.04514
763.77836,0.04517
762.81399,0.04524
761.84963,0.04517
760.88526,0.04488
759.92089,0.04454
758.95653,0.04445
757.99216,0.04459
757.02779,0.04466
756.06343,0.04453
755.09906,0.04431
754.13469,0.04409
753.17033,0.04388
752.20596,0.04377
751.24159,0.04380
750.27723,0.04389
749.31286,0.04395
748.34849,0.04396
747.38413,0.04391
746.41976,0.04375
745.45540,0.04357
744.49103,0.04344
743.52666,0.04337
742.56230,0.04331
741.59793,0.04322
740.63356,0.04306
739.66920,0.04280
738.70483,0.04256
737.74046,0.04241
736.77610,0.04224
735.81173,0.04195
734.84736,0.04169
733.88300,0.04160
732.91863,0.04146
731.95426,0.04112
730.98990,0.04077
730.02553,0.04066
729.06116,0.04059
728.09680,0.04039
727.13243,0.04022
726.16806,0.04014
725.20370,0.03995
724.23933,0.03962
723.27496,0.03943
722.31060,0.03950
721.34623,0.03955
720.38186,0.03932
719.41750,0.03895
718.45313,0.03871
717.48876,0.03858
716.52440,0.03839
715.56003,0.03820
714.59566,0.03815
713.63130,0.03812
712.66693,0.03792
711.70256,0.03765
710.73820,0.03754
709.77383,0.03759
708.80946,0.03758
707.84510,0.03742
706.88073,0.03725
705.91636,0.03715
704.95200,0.03706
703.98763,0.03696
703.02326,0.03683
702.05890,0.03673
701.09453,0.03669
700.13016,0.03668
699.16580,0.03661
698.20143,0.03643
697.23706,0.03618
696.27270,0.03595
695.30833,0.03580
694.34396,0.03576
693.37960,0.03580
692.41523,0.03582
691.45086,0.03572
690.48650,0.03552
689.52213,0.03535
688.55776,0.03530
687.59340,0.03528
686.62903,0.03509
685.66466,0.03470
684.70030,0.03435
683.73593,0.03426
682.77157,0.03430
681.80720,0.03422
680.84283,0.03403
679.87847,0.03390
678.91410,0.03387
677.94973,0.03382
676.98537,0.03372
676.02100,0.03359
675.05663,0.03338
674.09227,0.03303
673.12790,0.03266
672.16353,0.03247
671.19917,0.03263
670.23480,0.03354
669.27043,0.03442
668.30607,0.03411
667.34170,0.03246
666.37733,0.03137
665.41297,0.03137
664.44860,0.03180
663.48423,0.03191
662.51987,0.03192
661.55550,0.03188
660.59113,0.03177
659.62677,0.03157
658.66240,0.03136
657.69803,0.03125
656.73367,0.03126
655.76930,0.03132
654.80493,0.03136
653.84057,0.03140
652.87620,0.03134
651.91183,0.03112
650.94747,0.03075
649.98310,0.03041
649.01873,0.03020
648.05437,0.03010
647.09000,0.03007
646.12563,0.03014
645.16127,0.03023
644.19690,0.03010
643.23253,0.02978
642.26817,0.02955
641.30380,0.02946
640.33943,0.02932
639.37507,0.02916
638.41070,0.02919
637.44633,0.02942
636.48197,0.02950
635.51760,0.02917
634.55323,0.02866
633.58887,0.02848
632.62450,0.02877
631.66013,0.02911
630.69577,0.02909
629.73140,0.02877
628.76703,0.02837
627.80267,0.02811
626.83830,0.02810
625.87393,0.02819
624.90957,0.02808
623.94520,0.02775
622.98083,0.02749
622.01647,0.02751
621.05210,0.02760
620.08774,0.02756
619.12337,0.02748
618.15900,0.02740
617.19464,0.02722
616.23027,0.02699
615.26590,0.02687
614.30154,0.02688
613.33717,0.02688
612.37280,0.02685
611.40844,0.02687
610.44407,0.02684
609.47970,0.02663
608.51534,0.02639
607.55097,0.02629
606.58660,0.02628
605.62224,0.02626
604.65787,0.02625
603.69350,0.02627
602.72914,0.02618
601.76477,0.02592
600.80040,0.02564
599.83604,0.02554
598.87167,0.02553
597.90730,0.02538
596.94294,0.02505
595.97857,0.02477
595.01420,0.02466
594.04984,0.02469
593.08547,0.02483
592.12110,0.02497
591.15674,0.02498
590.19237,0.02477
589.22800,0.02447
588.26364,0.02423
587.29927,0.02410
586.33490,0.02401
585.37054,0.02392
584.40617,0.02382
583.44180,0.02363
582.47744,0.02345
581.51307,0.02353
580.54870,0.02385
579.58434,0.02394
578.61997,0.02359
577.65560,0.02303
576.69124,0.02265
575.72687,0.02257
574.76250,0.02263
573.79814,0.02259
572.83377,0.02236
571.86940,0.02204
570.90504,0.02181
569.94067,0.02176
568.97630,0.02181
568.01194,0.02176
567.04757,0.02151
566.08320,0.02113
565.11884,0.02080
564.15447,0.02062
563.19010,0.02056
562.22574,0.02051
561.26137,0.02042
560.29700,0.02039
559.33264,0.02043
558.36827,0.02051
557.40390,0.02065
556.43954,0.02074
555.47517,0.02060
554.51081,0.02025
553.54644,0.01990
552.58207,0.01962
551.61771,0.01934
550.65334,0.01901
549.68897,0.01869
548.72461,0.01858
547.76024,0.01872
546.79587,0.01886
545.83151,0.01885
544.86714,0.01877
543.90277,0.01862
542.93841,0.01831
541.97404,0.01790
541.00967,0.01763
540.04531,0.01764
539.08094,0.01777
538.11657,0.01766
537.15221,0.01720
536.18784,0.01671
535.22347,0.01657
534.25911,0.01675
533.29474,0.01683
532.33037,0.01654
531.36601,0.01623
530.40164,0.01649
529.43727,0.01712
528.47291,0.01731
527.50854,0.01680
526.54417,0.01610
525.57981,0.01551
524.61544,0.01499
523.65107,0.01476
522.68671,0.01504
521.72234,0.01544
520.75797,0.01552
519.79361,0.01540
518.82924,0.01536
517.86487,0.01528
516.90051,0.01499
515.93614,0.01465
514.97177,0.01434
514.00741,0.01408
513.04304,0.01411
512.07867,0.01447
511.11431,0.01462
510.14994,0.01432
509.18557,0.01402
508.22121,0.01397
507.25684,0.01386
506.29247,0.01351
505.32811,0.01313
504.36374,0.01295
503.39937,0.01295
502.43501,0.01275
501.47064,0.01215
500.50627,0.01167
499.54191,0.01187
498.57754,0.01245
497.61317,0.01266
496.64881,0.01239
495.68444,0.01194
494.72007,0.01159
493.75571,0.01145
492.79134,0.01147
491.82698,0.01151
490.86261,0.01148
489.89824,0.01131
488.93388,0.01099
487.96951,0.01057
487.00514,0.01021
486.04078,0.01026
485.07641,0.01080
484.11204,0.01123
483.14768,0.01083
482.18331,0.00994
481.21894,0.00950
480.25458,0.00977
479.29021,0.01004
478.32584,0.00971
477.36148,0.00903
476.39711,0.00853
475.43274,0.00844
474.46838,0.00867
473.50401,0.00883
472.53964,0.00859
471.57528,0.00812
470.61091,0.00788
469.64654,0.00800
468.68218,0.00841
467.71781,0.00889
466.75344,0.00901
465.78908,0.00847
464.82471,0.00757
463.86034,0.00705
462.89598,0.00732
461.93161,0.00777
460.96724,0.00753
460.00288,0.00674
459.03851,0.00616
458.07414,0.00595
457.10978,0.00592
456.14541,0.00612
455.18104,0.00646
454.21668,0.00653
453.25231,0.00610
452.28794,0.00560
451.32358,0.00549
450.35921,0.00573
449.39484,0.00577
448.43048,0.00556
447.46611,0.00566
446.50174,0.00623
445.53738,0.00645
444.57301,0.00540
443.60864,0.00369
442.64428,0.00310
441.67991,0.00434
440.71554,0.00595
439.75118,0.00624
438.78681,0.00527
437.82244,0.00436
436.85808,0.00441
435.89371,0.00527
434.92934,0.00618
433.96498,0.00642
433.00061,0.00571
432.03624,0.00445
431.07188,0.00331
430.10751,0.00279
429.14315,0.00309
428.17878,0.00419
427.21441,0.00530
426.25005,0.00530
425.28568,0.00387
424.32131,0.00217
423.35695,0.00154
422.39258,0.00184
421.42821,0.00241
420.46385,0.00348
419.49948,0.00469
418.53511,0.00452
417.57075,0.00285
416.60638,0.00152
415.64201,0.00094
414.67765,0.00054
413.71328,0.00043
412.74891,0.00112
411.78455,0.00227
410.82018,0.00297
409.85581,0.00245
408.89145,0.00102
407.92708,0.00011
406.96271,0.00053
405.99835,0.00161
405.03398,0.00212
404.06961,0.00139
403.10525,0.00027
402.14088,0.00029
401.17651,0.00082
400.21215,0.00082
399.24778,0.00082
