1900.76660,0.00166
1899.80223,0.00163
1898.83787,0.00160
1897.87350,0.00156
1896.90913,0.00153
1895.94477,0.00150
1894.98040,0.00147
1894.01603,0.00144
1893.05167,0.00140
1892.08730,0.00137
1891.12293,0.00134
1890.15857,0.00131
1889.19420,0.00128
1888.22983,0.00124
1887.26547,0.00121
1886.30110,0.00118
1885.33673,0.00115
1884.37237,0.00112
1883.40800,0.00108
1882.44364,0.00105
1881.47927,0.00102
1880.51490,0.00101
1879.55054,0.00095
1878.58617,0.00095
1877.62180,0.00105
1876.65744,0.00116
1875.69307,0.00098
1874.72870,0.00072
1873.76434,0.00073
1872.79997,0.00110
1871.83560,0.00145
1870.87124,0.00121
1869.90687,0.00076
1868.94250,0.00073
1867.97814,0.00117
1867.01377,0.00144
1866.04940,0.00137
1865.08504,0.00138
1864.12067,0.00151
1863.15630,0.00165
1862.19194,0.00164
1861.22757,0.00165
1860.26320,0.00168
1859.29884,0.00169
1858.33447,0.00186
1857.37010,0.00198
1856.40574,0.00205
1855.44137,0.00216
1854.47700,0.00234
1853.51264,0.00243
1852.54827,0.00265
1851.58390,0.00306
1850.61954,0.00317
1849.65517,0.00305
1848.69080,0.00297
1847.72644,0.00318
1846.76207,0.00354
1845.79770,0.00357
1844.83334,0.00318
1843.86897,0.00311
1842.90460,0.00389
1841.94024,0.00486
1840.97587,0.00544
1840.01150,0.00564
1839.04714,0.00557
1838.08277,0.00548
1837.11840,0.00557
1836.15404,0.00599
1835.18967,0.00651
1834.22530,0.00689
1833.26094,0.00708
1832.29657,0.00734
1831.33220,0.00757
1830.36784,0.00763
1829.40347,0.00810
1828.43910,0.00891
1827.47474,0.00949
1826.51037,0.00950
1825.54600,0.00957
1824.58164,0.01005
1823.61727,0.01065
1822.65290,0.01112
1821.68854,0.01135
1820.72417,0.01163
1819.75981,0.01191
1818.79544,0.01212
1817.83107,0.01233
1816.86671,0.01259
1815.90234,0.01296
1814.93797,0.01314
1813.97361,0.01327
1813.00924,0.01344
1812.04487,0.01361
1811.08051,0.01377
1810.11614,0.01393
1809.15177,0.01422
1808.18741,0.01444
1807.22304,0.01462
1806.25867,0.01473
1805.29431,0.01488
1804.32994,0.01509
1803.36557,0.01518
1802.40121,0.01516
1801.43684,0.01511
1800.47247,0.01523
1799.50811,0.01549
1798.54374,0.01587
1797.57937,0.01619
1796.61501,0.01632
1795.65064,0.01647
1794.68627,0.01665
1793.72191,0.01676
1792.75754,0.01674
1791.79317,0.01687
1790.82881,0.01732
1789.86444,0.01797
1788.90007,0.01859
1787.93571,0.01907
1786.97134,0.01949
1786.00697,0.01974
1785.04261,0.02008
1784.07824,0.02065
1783.11387,0.02131
1782.14951,0.02176
1781.18514,0.02208
1780.22077,0.02268
1779.25641,0.02352
1778.29204,0.02439
1777.32767,0.02492
1776.36331,0.02543
1775.39894,0.02618
1774.43457,0.02699
1773.47021,0.02751
1772.50584,0.02797
1771.54147,0.02906
1770.57711,0.03045
1769.61274,0.03149
1768.64837,0.03235
1767.68401,0.03353
1766.71964,0.03489
1765.75527,0.03603
1764.79091,0.03718
1763.82654,0.03819
1762.86217,0.03895
1761.89781,0.03996
1760.93344,0.04149
1759.96907,0.04312
1759.00471,0.04424
1758.04034,0.04520
1757.07597,0.04632
1756.11161,0.04779
1755.14724,0.04930
1754.18288,0.05067
1753.21851,0.05180
1752.25414,0.05263
1751.28978,0.05374
1750.32541,0.05510
1749.36104,0.05654
1748.39668,0.05769
1747.43231,0.05893
1746.46794,0.06029
1745.50358,0.06151
1744.53921,0.06250
1743.57484,0.06336
1742.61048,0.06443
1741.64611,0.06533
1740.68174,0.06602
1739.71738,0.06695
1738.75301,0.06810
1737.78864,0.06921
1736.82428,0.06994
1735.85991,0.07010
1734.89554,0.06938
1733.93118,0.06947
1732.96681,0.07086
1732.00244,0.07241
1731.03808,0.07276
1730.07371,0.07273
1729.10934,0.07291
1728.14498,0.07315
1727.18061,0.07328
1726.21624,0.07325
1725.25188,0.07312
1724.28751,0.07287
1723.32314,0.07257
1722.35878,0.07237
1721.39441,0.07205
1720.43004,0.07156
1719.46568,0.07043
1718.50131,0.06892
1717.53694,0.06815
1716.57258,0.06819
1715.60821,0.06795
1714.64384,0.06704
1713.67948,0.06654
1712.71511,0.06631
1711.75074,0.06568
1710.78638,0.06465
1709.82201,0.06378
1708.85764,0.06320
1707.89328,0.06241
1706.92891,0.06141
1705.96454,0.06038
1705.00018,0.05951
1704.03581,0.05879
1703.07144,0.05842
1702.10708,0.05782
1701.14271,0.05514
1700.17834,0.05338
1699.21398,0.05354
1698.24961,0.05490
1697.28524,0.05403
1696.32088,0.05252
1695.35651,0.05182
1694.39214,0.05221
1693.42778,0.05266
1692.46341,0.05232
1691.49905,0.05199
1690.53468,0.05173
1689.57031,0.05157
1688.60595,0.05150
1687.64158,0.05163
1686.67721,0.05191
1685.71285,0.05107
1684.74848,0.05007
1683.78411,0.05042
1682.81975,0.05247
1681.85538,0.05406
1680.89101,0.05482
1679.92665,0.05567
1678.96228,0.05678
1677.99791,0.05802
1677.03355,0.05872
1676.06918,0.05942
1675.10481,0.06081
1674.14045,0.06290
1673.17608,0.06487
1672.21171,0.06626
1671.24735,0.06766
1670.28298,0.06893
1669.31861,0.07091
1668.35425,0.07337
1667.38988,0.07600
1666.42551,0.07826
1665.46115,0.08045
1664.49678,0.08255
1663.53241,0.08442
1662.56805,0.08684
1661.60368,0.08961
1660.63931,0.09247
1659.67495,0.09499
1658.71058,0.09750
1657.74621,0.10011
1656.78185,0.10255
1655.81748,0.10489
1654.85311,0.10585
1653.88875,0.10580
1652.92438,0.10838
1651.96001,0.11361
1650.99565,0.11863
1650.03128,0.12104
1649.06691,0.12324
1648.10255,0.12511
1647.13818,0.12741
1646.17381,0.13029
1645.20945,0.13360
1644.24508,0.13654
1643.28071,0.13899
1642.31635,0.14140
1641.35198,0.14373
1640.38761,0.14612
1639.42325,0.14821
1638.45888,0.15030
1637.49451,0.15217
1636.53015,0.15340
1635.56578,0.15505
1634.60141,0.15746
1633.63705,0.16035
1632.67268,0.16233
1631.70831,0.16403
1630.74395,0.16540
1629.77958,0.16668
1628.81522,0.16768
1627.85085,0.16850
1626.88648,0.16940
1625.92212,0.17016
1624.95775,0.17059
1623.99338,0.17008
1623.02902,0.16984
1622.06465,0.16992
1621.10028,0.17007
1620.13592,0.16965
1619.17155,0.16892
1618.20718,0.16807
1617.24282,0.16574
1616.27845,0.16375
1615.31408,0.16252
1614.34972,0.16190
1613.38535,0.16024
1612.42098,0.15822
1611.45662,0.15641
1610.49225,0.15420
1609.52788,0.15206
1608.56352,0.14984
1607.59915,0.14787
1606.63478,0.14575
1605.67042,0.14363
1604.70605,0.14170
1603.74168,0.13953
1602.77732,0.13754
1601.81295,0.13542
1600.84858,0.13355
1599.88422,0.13161
1598.91985,0.12979
1597.95548,0.12812
1596.99112,0.12631
1596.02675,0.12464
1595.06238,0.12280
1594.09802,0.12125
1593.13365,0.11964
1592.16928,0.11802
1591.20492,0.11633
1590.24055,0.11449
1589.27618,0.11282
1588.31182,0.11099
1587.34745,0.10939
1586.38308,0.10771
1585.41872,0.10611
1584.45435,0.10453
1583.48998,0.10277
1582.52562,0.10103
1581.56125,0.09907
1580.59688,0.09732
1579.63252,0.09546
1578.66815,0.09379
1577.70378,0.09178
1576.73942,0.08867
1575.77505,0.08626
1574.81068,0.08492
1573.84632,0.08414
1572.88195,0.08222
1571.91758,0.08043
1570.95322,0.07843
1569.98885,0.07564
1569.02448,0.07339
1568.06012,0.07204
1567.09575,0.07115
1566.13139,0.06920
1565.16702,0.06706
1564.20265,0.06515
1563.23829,0.06361
1562.27392,0.06238
1561.30955,0.06026
1560.34519,0.05681
1559.38082,0.05263
1558.41645,0.05052
1557.45209,0.05078
1556.48772,0.05145
1555.52335,0.05082
1554.55899,0.04893
1553.59462,0.04744
1552.63025,0.04650
1551.66589,0.04561
1550.70152,0.04396
1549.73715,0.04236
1548.77279,0.04137
1547.80842,0.04051
1546.84405,0.03946
1545.87969,0.03775
1544.91532,0.03630
1543.95095,0.03526
1542.98659,0.03405
1542.02222,0.03271
1541.05785,0.03089
1540.09349,0.02929
1539.12912,0.02841
1538.16475,0.02901
1537.20039,0.02948
1536.23602,0.02907
1535.27165,0.02828
1534.30729,0.02696
1533.34292,0.02609
1532.37855,0.02570
1531.41419,0.02573
1530.44982,0.02531
1529.48545,0.02469
1528.52109,0.02410
1527.55672,0.02352
1526.59235,0.02304
1525.62799,0.02243
1524.66362,0.02225
1523.69925,0.02206
1522.73489,0.02106
1521.77052,0.02009
1520.80615,0.02009
1519.84179,0.02117
1518.87742,0.02157
1517.91305,0.02106
1516.94869,0.02058
1515.98432,0.02086
1515.01995,0.02159
1514.05559,0.02171
1513.09122,0.02159
1512.12685,0.02152
1511.16249,0.02173
1510.19812,0.02171
1509.23375,0.02134
1508.26939,0.02069
1507.30502,0.01951
1506.34065,0.01961
1505.37629,0.02110
1504.41192,0.02298
1503.44756,0.02358
1502.48319,0.02380
1501.51882,0.02404
1500.55446,0.02418
1499.59009,0.02427
1498.62572,0.02441
1497.66136,0.02463
1496.69699,0.02488
1495.73262,0.02554
1494.76826,0.02658
1493.80389,0.02737
1492.83952,0.02787
1491.87516,0.02802
1490.91079,0.02807
1489.94642,0.02854
1488.98206,0.02954
1488.01769,0.03049
1487.05332,0.03122
1486.08896,0.03220
1485.12459,0.03324
1484.16022,0.03416
1483.19586,0.03491
1482.23149,0.03569
1481.26712,0.03656
1480.30276,0.03754
1479.33839,0.03868
1478.37402,0.03963
1477.40966,0.04034
1476.44529,0.04122
1475.48092,0.04252
1474.51656,0.04368
1473.55219,0.04429
1472.58782,0.04536
1471.62346,0.04720
1470.65909,0.04926
1469.69472,0.05078
1468.73036,0.05208
1467.76599,0.05338
1466.80162,0.05445
1465.83726,0.05522
1464.87289,0.05620
1463.90852,0.05776
1462.94416,0.05936
1461.97979,0.06066
1461.01542,0.06177
1460.05106,0.06267
1459.08669,0.06326
1458.12232,0.06339
1457.15796,0.06433
1456.19359,0.06614
1455.22922,0.06839
1454.26486,0.06995
1453.30049,0.07112
1452.33612,0.07226
1451.37176,0.07347
1450.40739,0.07482
1449.44302,0.07591
1448.47866,0.07698
1447.51429,0.07827
1446.54992,0.07980
1445.58556,0.08135
1444.62119,0.08273
1443.65682,0.08409
1442.69246,0.08540
1441.72809,0.08677
1440.76373,0.08816
1439.79936,0.08962
1438.83499,0.09098
1437.87063,0.09172
1436.90626,0.09270
1435.94189,0.09440
1434.97753,0.09650
1434.01316,0.09794
1433.04879,0.09922
1432.08443,0.10061
1431.12006,0.10184
1430.15569,0.10298
1429.19133,0.10424
1428.22696,0.10572
1427.26259,0.10714
1426.29823,0.10854
1425.33386,0.10975
1424.36949,0.11083
1423.40513,0.11220
1422.44076,0.11389
1421.47639,0.11548
1420.51203,0.11626
1419.54766,0.11733
1418.58329,0.11926
1417.61893,0.12167
1416.65456,0.12368
1415.69019,0.12548
1414.72583,0.12741
1413.76146,0.12924
1412.79709,0.13102
1411.83273,0.13278
1410.86836,0.13460
1409.90399,0.13641
1408.93963,0.13813
1407.97526,0.13993
1407.01089,0.14159
1406.04653,0.14299
1405.08216,0.14434
1404.11779,0.14595
1403.15343,0.14765
1402.18906,0.14910
1401.22469,0.15035
1400.26033,0.15119
1399.29596,0.15190
1398.33159,0.15277
1397.36723,0.15375
1396.40286,0.15429
1395.43849,0.15420
1394.47413,0.15426
1393.50976,0.15484
1392.54539,0.15567
1391.58103,0.15604
1390.61666,0.15609
1389.65229,0.15607
1388.68793,0.15578
1387.72356,0.15531
1386.75919,0.15498
1385.79483,0.15499
1384.83046,0.15497
1383.86609,0.15469
1382.90173,0.15430
1381.93736,0.15386
1380.97299,0.15349
1380.00863,0.15314
1379.04426,0.15282
1378.07989,0.15249
1377.11553,0.15219
1376.15116,0.15182
1375.18680,0.15122
1374.22243,0.15065
1373.25806,0.15038
1372.29370,0.15033
1371.32933,0.15017
1370.36496,0.14990
1369.40060,0.14953
1368.43623,0.14916
1367.47186,0.14889
1366.50750,0.14862
1365.54313,0.14832
1364.57876,0.14785
1363.61440,0.14726
1362.65003,0.14675
1361.68566,0.14648
1360.72130,0.14634
1359.75693,0.14609
1358.79256,0.14575
1357.82820,0.14533
1356.86383,0.14488
1355.89946,0.14437
1354.93510,0.14378
1353.97073,0.14319
1353.00636,0.14258
1352.04200,0.14190
1351.07763,0.14107
1350.11326,0.14019
1349.14890,0.13936
1348.18453,0.13854
1347.22016,0.13764
1346.25580,0.13662
1345.29143,0.13559
1344.32706,0.13456
1343.36270,0.13359
1342.39833,0.13266
1341.43396,0.13160
1340.46960,0.13039
1339.50523,0.12924
1338.54086,0.12834
1337.57650,0.12754
1336.61213,0.12675
1335.64776,0.12600
1334.68340,0.12529
1333.71903,0.12455
1332.75466,0.12382
1331.79030,0.12319
1330.82593,0.12259
1329.86156,0.12198
1328.89720,0.12142
1327.93283,0.12088
1326.96846,0.12034
1326.00410,0.11983
1325.03973,0.11940
1324.07536,0.11896
1323.11100,0.11850
1322.14663,0.11803
1321.18226,0.11754
1320.21790,0.11698
1319.25353,0.11639
1318.28916,0.11584
1317.32480,0.11535
1316.36043,0.11487
1315.39606,0.11433
1314.43170,0.11367
1313.46733,0.11297
1312.50297,0.11237
1311.53860,0.11187
1310.57423,0.11132
1309.60987,0.11065
1308.64550,0.10988
1307.68113,0.10911
1306.71677,0.10843
1305.75240,0.10785
1304.78803,0.10728
1303.82367,0.10668
1302.85930,0.10603
1301.89493,0.10534
1300.93057,0.10473
1299.96620,0.10418
1299.00183,0.10364
1298.03747,0.10312
1297.07310,0.10267
1296.10873,0.10229
1295.14437,0.10190
1294.18000,0.10151
1293.21563,0.10113
1292.25127,0.10079
1291.28690,0.10046
1290.32253,0.10017
1289.35817,0.09990
1288.39380,0.09954
1287.42943,0.09917
1286.46507,0.09888
1285.50070,0.09862
1284.53633,0.09830
1283.57197,0.09798
1282.60760,0.09772
1281.64323,0.09752
1280.67887,0.09735
1279.71450,0.09713
1278.75013,0.09683
1277.78577,0.09650
1276.82140,0.09623
1275.85703,0.09602
1274.89267,0.09586
1273.92830,0.09570
1272.96393,0.09548
1271.99957,0.09520
1271.03520,0.09499
1270.07083,0.09489
1269.10647,0.09481
1268.14210,0.09471
1267.17773,0.09460
1266.21337,0.09448
1265.24900,0.09438
1264.28463,0.09433
1263.32027,0.09428
1262.35590,0.09419
1261.39153,0.09407
1260.42717,0.09398
1259.46280,0.09400
1258.49843,0.09411
1257.53407,0.09421
1256.56970,0.09425
1255.60533,0.09431
1254.64097,0.09438
1253.67660,0.09444
1252.71223,0.09450
1251.74787,0.09460
1250.78350,0.09463
1249.81914,0.09460
1248.85477,0.09465
1247.89040,0.09483
1246.92604,0.09503
1245.96167,0.09517
1244.99730,0.09525
1244.03294,0.09531
1243.06857,0.09524
1242.10420,0.09508
1241.13984,0.09509
1240.17547,0.09530
1239.21110,0.09548
1238.24674,0.09550
1237.28237,0.09544
1236.31800,0.09540
1235.35364,0.09537
1234.38927,0.09529
1233.42490,0.09518
1232.46054,0.09506
1231.49617,0.09496
1230.53180,0.09485
1229.56744,0.09474
1228.60307,0.09457
1227.63870,0.09435
1226.67434,0.09413
1225.70997,0.09397
1224.74560,0.09381
1223.78124,0.09355
1222.81687,0.09318
1221.85250,0.09278
1220.88814,0.09242
1219.92377,0.09211
1218.95940,0.09180
1217.99504,0.09144
1217.03067,0.09102
1216.06630,0.09062
1215.10194,0.09031
1214.13757,0.08996
1213.17320,0.08944
1212.20884,0.08881
1211.24447,0.08820
1210.28010,0.08767
1209.31574,0.08723
1208.35137,0.08685
1207.38700,0.08649
1206.42264,0.08610
1205.45827,0.08562
1204.49390,0.08507
1203.52954,0.08454
1202.56517,0.08409
1201.60080,0.08366
1200.63644,0.08321
1199.67207,0.08270
1198.70770,0.08216
1197.74334,0.08167
1196.77897,0.08126
1195.81460,0.08083
1194.85024,0.08037
1193.88587,0.07996
1192.92150,0.07959
1191.95714,0.07920
1190.99277,0.07881
1190.02840,0.07854
1189.06404,0.07836
1188.09967,0.07815
1187.13531,0.07791
1186.17094,0.07773
1185.20657,0.07758
1184.24221,0.07736
1183.27784,0.07709
1182.31347,0.07688
1181.34911,0.07676
1180.38474,0.07667
1179.42037,0.07659
1178.45601,0.07655
1177.49164,0.07656
1176.52727,0.07656
1175.56291,0.07647
1174.59854,0.07636
1173.63417,0.07634
1172.66981,0.07636
1171.70544,0.07635
1170.74107,0.07630
1169.77671,0.07632
1168.81234,0.07640
1167.84797,0.07651
1166.88361,0.07662
1165.91924,0.07671
1164.95487,0.07678
1163.99051,0.07683
1163.02614,0.07689
1162.06177,0.07699
1161.09741,0.07711
1160.13304,0.07720
1159.16867,0.07728
1158.20431,0.07736
1157.23994,0.07755
1156.27557,0.07789
1155.31121,0.07824
1154.34684,0.07842
1153.38247,0.07854
1152.41811,0.07875
1151.45374,0.07904
1150.48937,0.07942
1149.52501,0.07987
1148.56064,0.08023
1147.59627,0.08052
1146.63191,0.08090
1145.66754,0.08137
1144.70317,0.08185
1143.73881,0.08229
1142.77444,0.08269
1141.81007,0.08308
1140.84571,0.08351
1139.88134,0.08404
1138.91697,0.08463
1137.95261,0.08519
1136.98824,0.08571
1136.02387,0.08621
1135.05951,0.08673
1134.09514,0.08731
1133.13077,0.08797
1132.16641,0.08866
1131.20204,0.08932
1130.23767,0.08995
1129.27331,0.09056
1128.30894,0.09116
1127.34457,0.09170
1126.38021,0.09222
1125.41584,0.09288
1124.45148,0.09359
1123.48711,0.09421
1122.52274,0.09471
1121.55838,0.09518
1120.59401,0.09567
1119.62964,0.09616
1118.66528,0.09674
1117.70091,0.09741
1116.73654,0.09804
1115.77218,0.09853
1114.80781,0.09904
1113.84344,0.09967
1112.87908,0.10038
1111.91471,0.10110
1110.95034,0.10178
1109.98598,0.10240
1109.02161,0.10299
1108.05724,0.10363
1107.09288,0.10437
1106.12851,0.10518
1105.16414,0.10606
1104.19978,0.10700
1103.23541,0.10796
1102.27104,0.10888
1101.30668,0.10986
1100.34231,0.11099
1099.37794,0.11223
1098.41358,0.11346
1097.44921,0.11464
1096.48484,0.11588
1095.52048,0.11721
1094.55611,0.11851
1093.59174,0.11968
1092.62738,0.12080
1091.66301,0.12191
1090.69864,0.12294
1089.73428,0.12395
1088.76991,0.12498
1087.80554,0.12600
1086.84118,0.12698
1085.87681,0.12800
1084.91244,0.12901
1083.94808,0.12997
1082.98371,0.13098
1082.01934,0.13193
1081.05498,0.13264
1080.09061,0.13320
1079.12624,0.13386
1078.16188,0.13465
1077.19751,0.13544
1076.23314,0.13614
1075.26878,0.13665
1074.30441,0.13712
1073.34004,0.13769
1072.37568,0.13824
1071.41131,0.13860
1070.44694,0.13880
1069.48258,0.13892
1068.51821,0.13881
1067.55384,0.13831
1066.58948,0.13767
1065.62511,0.13746
1064.66074,0.13764
1063.69638,0.13764
1062.73201,0.13724
1061.76765,0.13664
1060.80328,0.13593
1059.83891,0.13502
1058.87455,0.13398
1057.91018,0.13301
1056.94581,0.13224
1055.98145,0.13151
1055.01708,0.13061
1054.05271,0.12956
1053.08835,0.12853
1052.12398,0.12747
1051.15961,0.12625
1050.19525,0.12501
1049.23088,0.12389
1048.26651,0.12275
1047.30215,0.12146
1046.33778,0.12012
1045.37341,0.11881
1044.40905,0.11743
1043.44468,0.11587
1042.48031,0.11427
1041.51595,0.11280
1040.55158,0.11139
1039.58721,0.10991
1038.62285,0.10833
1037.65848,0.10675
1036.69411,0.10527
1035.72975,0.10397
1034.76538,0.10264
1033.80101,0.10113
1032.83665,0.09955
1031.87228,0.09801
1030.90791,0.09645
1029.94355,0.09476
1028.97918,0.09287
1028.01481,0.09099
1027.05045,0.08946
1026.08608,0.08823
1025.12171,0.08697
1024.15735,0.08565
1023.19298,0.08437
1022.22861,0.08309
1021.26425,0.08178
1020.29988,0.08047
1019.33551,0.07922
1018.37115,0.07810
1017.40678,0.07701
1016.44241,0.07586
1015.47805,0.07474
1014.51368,0.07384
1013.54931,0.07315
1012.58495,0.07255
1011.62058,0.07193
1010.65621,0.07131
1009.69185,0.07081
1008.72748,0.07043
1007.76311,0.07005
1006.79875,0.06966
1005.83438,0.06935
1004.87001,0.06914
1003.90565,0.06894
1002.94128,0.06875
1001.97691,0.06856
1001.01255,0.06839
1000.04818,0.06828
999.08382,0.06825
998.11945,0.06819
997.15508,0.06807
996.19072,0.06793
995.22635,0.06782
994.26198,0.06774
993.29762,0.06768
992.33325,0.06767
991.36888,0.06768
990.40452,0.06759
989.44015,0.06740
988.47578,0.06717
987.51142,0.06694
986.54705,0.06674
985.58268,0.06662
984.61832,0.06647
983.65395,0.06616
982.68958,0.06583
981.72522,0.06561
980.76085,0.06548
979.79648,0.06529
978.83212,0.06499
977.86775,0.06462
976.90338,0.06421
975.93902,0.06372
974.97465,0.06314
974.01028,0.06251
973.04592,0.06188
972.08155,0.06123
971.11718,0.06048
970.15282,0.05966
969.18845,0.05885
968.22408,0.05804
967.25972,0.05720
966.29535,0.05636
965.33098,0.05549
964.36662,0.05458
963.40225,0.05370
962.43788,0.05294
961.47352,0.05218
960.50915,0.05137
959.54478,0.05053
958.58042,0.04971
957.61605,0.04886
956.65168,0.04801
955.68732,0.04726
954.72295,0.04649
953.75858,0.04558
952.79422,0.04456
951.82985,0.04356
950.86548,0.04267
949.90112,0.04183
948.93675,0.04103
947.97238,0.04020
947.00802,0.03932
946.04365,0.03848
945.07928,0.03770
944.11492,0.03702
943.15055,0.03637
942.18618,0.03570
941.22182,0.03493
940.25745,0.03411
939.29308,0.03334
938.32872,0.03260
937.36435,0.03190
936.39998,0.03131
935.43562,0.03080
934.47125,0.03024
933.50689,0.02955
932.54252,0.02887
931.57815,0.02834
930.61379,0.02792
929.64942,0.02748
928.68505,0.02701
927.72069,0.02660
926.75632,0.02623
925.79195,0.02583
924.82759,0.02540
923.86322,0.02502
922.89885,0.02475
921.93449,0.02457
920.97012,0.02435
920.00575,0.02400
919.04139,0.02357
918.07702,0.02322
917.11265,0.02298
916.14829,0.02269
915.18392,0.02224
914.21955,0.02174
913.25519,0.02130
912.29082,0.02090
911.32645,0.02039
910.36209,0.01981
909.39772,0.01929
908.43335,0.01883
907.46899,0.01828
906.50462,0.01755
905.54025,0.01680
904.57589,0.01620
903.61152,0.01563
902.64715,0.01504
901.68279,0.01452
900.71842,0.01409
899.75405,0.01373
898.78969,0.01334
897.82532,0.01285
896.86095,0.01235
895.89659,0.01196
894.93222,0.01167
893.96785,0.01140
893.00349,0.01110
892.03912,0.01072
891.07475,0.01040
890.11039,0.01027
889.14602,0.01021
888.18165,0.01012
887.21729,0.00992
886.25292,0.00967
885.28855,0.00946
884.32419,0.00932
883.35982,0.00918
882.39545,0.00903
881.43109,0.00886
880.46672,0.00859
879.50235,0.00847
878.53799,0.00867
877.57362,0.00893
876.60925,0.00901
875.64489,0.00905
874.68052,0.00918
873.71615,0.00922
872.75179,0.00913
871.78742,0.00915
870.82306,0.00941
869.85869,0.00977
868.89432,0.01001
867.92996,0.01011
866.96559,0.01021
866.00122,0.01041
865.03686,0.01072
864.07249,0.01102
863.10812,0.01125
862.14376,0.01143
861.17939,0.01151
860.21502,0.01157
859.25066,0.01178
858.28629,0.01207
857.32192,0.01225
856.35756,0.01229
855.39319,0.01235
854.42882,0.01255
853.46446,0.01283
852.50009,0.01305
851.53572,0.01313
850.57136,0.01317
849.60699,0.01332
848.64262,0.01362
847.67826,0.01388
846.71389,0.01392
845.74952,0.01391
844.78516,0.01403
843.82079,0.01416
842.85642,0.01422
841.89206,0.01431
840.92769,0.01450
839.96332,0.01463
838.99896,0.01466
838.03459,0.01471
837.07022,0.01486
836.10586,0.01504
835.14149,0.01508
834.17712,0.01499
833.21276,0.01491
832.24839,0.01494
831.28402,0.01500
830.31966,0.01500
829.35529,0.01493
828.39092,0.01479
827.42656,0.01469
826.46219,0.01473
825.49782,0.01485
824.53346,0.01486
823.56909,0.01476
822.60472,0.01468
821.64036,0.01463
820.67599,0.01455
819.71162,0.01436
818.74726,0.01410
817.78289,0.01393
816.81852,0.01395
815.85416,0.01409
814.88979,0.01420
813.92542,0.01423
812.96106,0.01419
811.99669,0.01418
811.03232,0.01415
810.06796,0.01401
809.10359,0.01385
808.13923,0.01383
807.17486,0.01389
806.21049,0.01389
805.24613,0.01382
804.28176,0.01381
803.31739,0.01376
802.35303,0.01359
801.38866,0.01336
800.42429,0.01319
799.45993,0.01314
798.49556,0.01318
797.53119,0.01321
796.56683,0.01320
795.60246,0.01324
794.63809,0.01328
793.67373,0.01320
792.70936,0.01306
791.74499,0.01296
790.78063,0.01298
789.81626,0.01311
788.85189,0.01319
787.88753,0.01312
786.92316,0.01308
785.95879,0.01317
784.99443,0.01322
784.03006,0.01321
783.06569,0.01314
782.10133,0.01304
781.13696,0.01307
780.17259,0.01323
779.20823,0.01332
778.24386,0.01323
777.27949,0.01317
776.31513,0.01320
775.35076,0.01326
774.38639,0.01331
773.42203,0.01329
772.45766,0.01318
771.49329,0.01316
770.52893,0.01332
769.56456,0.01342
768.60019,0.01336
767.63583,0.01341
766.67146,0.01360
765.70709,0.01371
764.74273,0.01374
763.77836,0.01381
762.81399,0.01384
761.84963,0.01383
760.88526,0.01391
759.92089,0.01408
758.95653,0.01424
757.99216,0.01434
757.02779,0.01439
756.06343,0.01445
755.09906,0.01463
754.13469,0.01490
753.17033,0.01514
752.20596,0.01529
751.24159,0.01545
750.27723,0.01569
749.31286,0.01602
748.34849,0.01631
747.38413,0.01651
746.41976,0.01671
745.45540,0.01700
744.49103,0.01726
743.52666,0.01734
742.56230,0.01748
741.59793,0.01782
740.63356,0.01810
739.66920,0.01821
738.70483,0.01828
737.74046,0.01841
736.77610,0.01864
735.81173,0.01888
734.84736,0.01902
733.88300,0.01917
732.91863,0.01952
731.95426,0.01995
730.98990,0.02023
730.02553,0.02038
729.06116,0.02052
728.09680,0.02077
727.13243,0.02111
726.16806,0.02140
725.20370,0.02159
724.23933,0.02175
723.27496,0.02203
722.31060,0.02237
721.34623,0.02265
720.38186,0.02292
719.41750,0.02327
718.45313,0.02364
717.48876,0.02395
716.52440,0.02431
715.56003,0.02470
714.59566,0.02496
713.63130,0.02508
712.66693,0.02525
711.70256,0.02558
710.73820,0.02598
709.77383,0.02627
708.80946,0.02642
707.84510,0.02655
706.88073,0.02676
705.91636,0.02705
704.95200,0.02731
703.98763,0.02756
703.02326,0.02782
702.05890,0.02795
701.09453,0.02795
700.13016,0.02798
699.16580,0.02801
698.20143,0.02801
697.23706,0.02799
696.27270,0.02793
695.30833,0.02780
694.34396,0.02780
693.37960,0.02789
692.41523,0.02787
691.45086,0.02777
690.48650,0.02777
689.52213,0.02783
688.55776,0.02789
687.59340,0.02792
686.62903,0.02791
685.66466,0.02785
684.70030,0.02770
683.73593,0.02749
682.77157,0.02732
681.80720,0.02732
680.84283,0.02734
679.87847,0.02715
678.91410,0.02688
677.94973,0.02680
676.98537,0.02691
676.02100,0.02708
675.05663,0.02719
674.09227,0.02706
673.12790,0.02674
672.16353,0.02661
671.19917,0.02683
670.23480,0.02709
669.27043,0.02648
668.30607,0.02587
667.34170,0.02613
666.37733,0.02710
665.41297,0.02753
664.44860,0.02749
663.48423,0.02738
662.51987,0.02737
661.55550,0.02744
660.59113,0.02747
659.62677,0.02762
658.66240,0.02795
657.69803,0.02808
656.73367,0.02801
655.76930,0.02820
654.80493,0.02860
653.84057,0.02873
652.87620,0.02860
651.91183,0.02861
650.94747,0.02876
649.98310,0.02877
649.01873,0.02881
648.05437,0.02913
647.09000,0.02953
646.12563,0.02973
645.16127,0.02982
644.19690,0.02990
643.23253,0.03010
642.26817,0.03057
641.30380,0.03108
640.33943,0.03129
639.37507,0.03129
638.41070,0.03137
637.44633,0.03149
636.48197,0.03154
635.51760,0.03171
634.55323,0.03207
633.58887,0.03246
632.62450,0.03272
631.66013,0.03292
630.69577,0.03321
629.73140,0.03364
628.76703,0.03403
627.80267,0.03413
626.83830,0.03406
625.87393,0.03405
624.90957,0.03411
623.94520,0.03434
622.98083,0.03469
622.01647,0.03505
621.05210,0.03533
620.08774,0.03548
619.12337,0.03543
618.15900,0.03517
617.19464,0.03496
616.23027,0.03497
615.26590,0.03519
614.30154,0.03541
613.33717,0.03545
612.37280,0.03549
611.40844,0.03561
610.44407,0.03577
609.47970,0.03589
608.51534,0.03595
607.55097,0.03589
606.58660,0.03562
605.62224,0.03519
604.65787,0.03494
603.69350,0.03501
602.72914,0.03505
601.76477,0.03494
600.80040,0.03490
599.83604,0.03491
598.87167,0.03473
597.90730,0.03444
596.94294,0.03438
595.97857,0.03450
595.01420,0.03466
594.04984,0.03464
593.08547,0.03434
592.12110,0.03397
591.15674,0.03385
590.19237,0.03394
589.22800,0.03388
588.26364,0.03382
587.29927,0.03395
586.33490,0.03383
585.37054,0.03323
584.40617,0.03270
583.44180,0.03279
582.47744,0.03317
581.51307,0.03332
580.54870,0.03331
579.58434,0.03343
578.61997,0.03364
577.65560,0.03369
576.69124,0.03365
575.72687,0.03371
574.76250,0.03378
573.79814,0.03365
572.83377,0.03339
571.86940,0.03327
570.90504,0.03326
569.94067,0.03334
568.97630,0.03347
568.01194,0.03353
567.04757,0.03358
566.08320,0.03365
565.11884,0.03359
564.15447,0.03338
563.19010,0.03346
562.22574,0.03367
561.26137,0.03339
560.29700,0.03286
559.33264,0.03260
558.36827,0.03261
557.40390,0.03277
556.43954,0.03311
555.47517,0.03333
554.51081,0.03306
553.54644,0.03277
552.58207,0.03281
551.61771,0.03301
550.65334,0.03314
549.68897,0.03307
548.72461,0.03288
547.76024,0.03263
546.79587,0.03231
545.83151,0.03202
544.86714,0.03196
543.90277,0.03216
542.93841,0.03229
541.97404,0.03226
541.00967,0.03234
540.04531,0.03257
539.08094,0.03262
538.11657,0.03223
537.15221,0.03176
536.18784,0.03177
535.22347,0.03223
534.25911,0.03261
533.29474,0.03259
532.33037,0.03232
531.36601,0.03208
530.40164,0.03210
529.43727,0.03219
528.47291,0.03178
527.50854,0.03099
526.54417,0.03061
525.57981,0.03081
524.61544,0.03106
523.65107,0.03115
522.68671,0.03124
521.72234,0.03123
520.75797,0.03099
519.79361,0.03073
518.82924,0.03068
517.86487,0.03070
516.90051,0.03072
515.93614,0.03085
514.97177,0.03099
514.00741,0.03103
513.04304,0.03088
512.07867,0.03043
511.11431,0.02996
510.14994,0.02979
509.18557,0.02965
508.22121,0.02926
507.25684,0.02919
506.29247,0.02957
505.32811,0.02977
504.36374,0.02949
503.39937,0.02899
502.43501,0.02878
501.47064,0.02899
500.50627,0.02930
499.54191,0.02932
498.57754,0.02925
497.61317,0.02935
496.64881,0.02938
495.68444,0.02923
494.72007,0.02914
493.75571,0.02911
492.79134,0.02883
491.82698,0.02843
490.86261,0.02835
489.89824,0.02850
488.93388,0.02836
487.96951,0.02780
487.00514,0.02728
486.04078,0.02703
485.07641,0.02685
484.11204,0.02664
483.14768,0.02665
482.18331,0.02702
481.21894,0.02728
480.25458,0.02725
479.29021,0.02692
478.32584,0.02615
477.36148,0.02538
476.39711,0.02502
475.43274,0.02508
474.46838,0.02552
473.50401,0.02590
472.53964,0.02551
471.57528,0.02466
470.61091,0.02422
469.64654,0.02401
468.68218,0.02351
467.71781,0.02339
466.75344,0.02406
465.78908,0.02469
464.82471,0.02430
463.86034,0.02332
462.89598,0.02275
461.93161,0.02284
460.96724,0.02293
460.00288,0.02249
459.03851,0.02152
458.07414,0.02051
457.10978,0.02013
456.14541,0.02069
455.18104,0.02174
454.21668,0.02205
453.25231,0.02112
452.28794,0.02036
451.32358,0.02065
450.35921,0.02080
449.39484,0.01997
448.43048,0.01920
447.46611,0.01937
446.50174,0.02026
445.53738,0.02123
444.57301,0.02131
443.60864,0.02041
442.64428,0.01961
441.67991,0.01941
440.71554,0.01938
439.75118,0.01937
438.78681,0.01957
437.82244,0.01962
436.85808,0.01905
435.89371,0.01776
434.92934,0.01648
433.96498,0.01606
433.00061,0.01623
432.03624,0.01640
431.07188,0.01623
430.10751,0.01577
429.14315,0.01551
428.17878,0.01584
427.21441,0.01631
426.25005,0.01607
425.28568,0.01557
424.32131,0.01523
423.35695,0.01388
422.39258,0.01165
421.42821,0.01046
420.46385,0.01024
419.49948,0.00947
418.53511,0.00980
417.57075,0.01111
416.60638,0.01084
415.64201,0.00891
414.67765,0.00820
413.71328,0.00794
412.74891,0.00715
411.78455,0.00693
410.82018,0.00706
409.85581,0.00645
408.89145,0.00637
407.92708,0.00763
406.96271,0.00757
405.99835,0.00528
405.03398,0.00360
404.06961,0.00396
403.10525,0.00558
402.14088,0.00721
401.17651,0.00685
400.21215,0.00685
399.24778,0.00685
