1900.78880,0.05576
1899.82442,0.05588
1898.86005,0.05574
1897.89567,0.05602
1896.93129,0.05630
1895.96691,0.05598
1895.00253,0.05595
1894.03816,0.05601
1893.07378,0.05595
1892.10940,0.05611
1891.14502,0.05574
1890.18065,0.05515
1889.21627,0.05494
1888.25189,0.05507
1887.28751,0.05551
1886.32313,0.05554
1885.35876,0.05548
1884.39438,0.05561
1883.43000,0.05553
1882.46562,0.05569
1881.50124,0.05584
1880.53687,0.05573
1879.57249,0.05571
1878.60811,0.05561
1877.64373,0.05555
1876.67935,0.05564
1875.71498,0.05560
1874.75060,0.05554
1873.78622,0.05571
1872.82184,0.05582
1871.85747,0.05560
1870.89309,0.05534
1869.92871,0.05530
1868.96433,0.05522
1867.99995,0.05491
1867.03558,0.05509
1866.07120,0.05574
1865.10682,0.05581
1864.14244,0.05563
1863.17806,0.05578
1862.21369,0.05598
1861.24931,0.05598
1860.28493,0.05579
1859.32055,0.05560
1858.35618,0.05538
1857.39180,0.05542
1856.42742,0.05564
1855.46304,0.05550
1854.49866,0.05536
1853.53429,0.05541
1852.56991,0.05545
1851.60553,0.05560
1850.64115,0.05580
1849.67677,0.05592
1848.71240,0.05611
1847.74802,0.05617
1846.78364,0.05614
1845.81926,0.05642
1844.85488,0.05661
1843.89051,0.05663
1842.92613,0.05653
1841.96175,0.05635
1840.99737,0.05646
1840.03300,0.05673
1839.06862,0.05696
1838.10424,0.05700
1837.13986,0.05707
1836.17548,0.05724
1835.21111,0.05724
1834.24673,0.05745
1833.28235,0.05759
1832.31797,0.05766
1831.35359,0.05781
1830.38922,0.05765
1829.42484,0.05756
1828.46046,0.05768
1827.49608,0.05789
1826.53171,0.05788
1825.56733,0.05781
1824.60295,0.05822
1823.63857,0.05846
1822.67419,0.05843
1821.70982,0.05843
1820.74544,0.05853
1819.78106,0.05858
1818.81668,0.05844
1817.85230,0.05838
1816.88793,0.05838
1815.92355,0.05848
1814.95917,0.05863
1813.99479,0.05875
1813.03041,0.05899
1812.06604,0.05913
1811.10166,0.05909
1810.13728,0.05893
1809.17290,0.05900
1808.20853,0.05918
1807.24415,0.05920
1806.27977,0.05917
1805.31539,0.05917
1804.35101,0.05938
1803.38664,0.05955
1802.42226,0.05948
1801.45788,0.05951
1800.49350,0.05969
1799.52912,0.05987
1798.56475,0.05997
1797.60037,0.06008
1796.63599,0.06020
1795.67161,0.06026
1794.70724,0.06038
1793.74286,0.06054
1792.77848,0.06049
1791.81410,0.06039
1790.84972,0.06065
1789.88535,0.06107
1788.92097,0.06147
1787.95659,0.06181
1786.99221,0.06204
1786.02783,0.06220
1785.06346,0.06229
1784.09908,0.06251
1783.13470,0.06281
1782.17032,0.06300
1781.20594,0.06322
1780.24157,0.06356
1779.27719,0.06400
1778.31281,0.06437
1777.34843,0.06469
1776.38406,0.06501
1775.41968,0.06545
1774.45530,0.06603
1773.49092,0.06626
1772.52654,0.06624
1771.56217,0.06655
1770.59779,0.06723
1769.63341,0.06788
1768.66903,0.06822
1767.70465,0.06859
1766.74028,0.06916
1765.77590,0.06957
1764.81152,0.06981
1763.84714,0.07025
1762.88276,0.07067
1761.91839,0.07100
1760.95401,0.07155
1759.98963,0.07194
1759.02525,0.07217
1758.06088,0.07255
1757.09650,0.07292
1756.13212,0.07331
1755.16774,0.07369
1754.20336,0.07398
1753.23899,0.07435
1752.27461,0.07455
1751.31023,0.07465
1750.34585,0.07515
1749.38147,0.07567
1748.41710,0.07597
1747.45272,0.07626
1746.48834,0.07655
1745.52396,0.07681
1744.55959,0.07699
1743.59521,0.07709
1742.63083,0.07725
1741.66645,0.07744
1740.70207,0.07743
1739.73770,0.07749
1738.77332,0.07779
1737.80894,0.07794
1736.84456,0.07802
1735.88018,0.07796
1734.91581,0.07760
1733.95143,0.07734
1732.98705,0.07747
1732.02267,0.07778
1731.05829,0.07785
1730.09392,0.07769
1729.12954,0.07763
1728.16516,0.07766
1727.20078,0.07768
1726.23641,0.07753
1725.27203,0.07725
1724.30765,0.07707
1723.34327,0.07693
1722.37889,0.07674
1721.41452,0.07651
1720.45014,0.07629
1719.48576,0.07600
1718.52138,0.07534
1717.55700,0.07477
1716.59263,0.07482
1715.62825,0.07482
1714.66387,0.07455
1713.69949,0.07438
1712.73512,0.07421
1711.77074,0.07394
1710.80636,0.07358
1709.84198,0.07315
1708.87760,0.07286
1707.91323,0.07264
1706.94885,0.07218
1705.98447,0.07166
1705.02009,0.07135
1704.05571,0.07111
1703.09134,0.07096
1702.12696,0.07075
1701.16258,0.06992
1700.19820,0.06914
1699.23382,0.06933
1698.26945,0.06953
1697.30507,0.06908
1696.34069,0.06816
1695.37631,0.06763
1694.41194,0.06786
1693.44756,0.06787
1692.48318,0.06751
1691.51880,0.06714
1690.55442,0.06682
1689.59005,0.06652
1688.62567,0.06622
1687.66129,0.06600
1686.69691,0.06570
1685.73253,0.06499
1684.76816,0.06424
1683.80378,0.06416
1682.83940,0.06439
1681.87502,0.06440
1680.91065,0.06422
1679.94627,0.06402
1678.98189,0.06390
1678.01751,0.06378
1677.05313,0.06350
1676.08876,0.06292
1675.12438,0.06251
1674.16000,0.06279
1673.19562,0.06299
1672.23124,0.06278
1671.26687,0.06255
1670.30249,0.06231
1669.33811,0.06202
1668.37373,0.06200
1667.40935,0.06213
1666.44498,0.06215
1665.48060,0.06208
1664.51622,0.06197
1663.55184,0.06185
1662.58747,0.06174
1661.62309,0.06187
1660.65871,0.06205
1659.69433,0.06216
1658.72995,0.06223
1657.76558,0.06216
1656.80120,0.06223
1655.83682,0.06231
1654.87244,0.06217
1653.90806,0.06163
1652.94369,0.06112
1651.97931,0.06180
1651.01493,0.06272
1650.05055,0.06304
1649.08618,0.06306
1648.12180,0.06297
1647.15742,0.06293
1646.19304,0.06296
1645.22866,0.06327
1644.26429,0.06374
1643.29991,0.06405
1642.33553,0.06425
1641.37115,0.06447
1640.40677,0.06480
1639.44240,0.06519
1638.47802,0.06550
1637.51364,0.06576
1636.54926,0.06586
1635.58488,0.06595
1634.62051,0.06662
1633.65613,0.06744
1632.69175,0.06802
1631.72737,0.06858
1630.76300,0.06903
1629.79862,0.06950
1628.83424,0.07001
1627.86986,0.07058
1626.90548,0.07117
1625.94111,0.07161
1624.97673,0.07207
1624.01235,0.07254
1623.04797,0.07316
1622.08359,0.07393
1621.11922,0.07456
1620.15484,0.07501
1619.19046,0.07542
1618.22608,0.07575
1617.26171,0.07576
1616.29733,0.07612
1615.33295,0.07702
1614.36857,0.07768
1613.40419,0.07804
1612.43982,0.07841
1611.47544,0.07883
1610.51106,0.07920
1609.54668,0.07949
1608.58230,0.07992
1607.61793,0.08037
1606.65355,0.08073
1605.68917,0.08110
1604.72479,0.08155
1603.76041,0.08205
1602.79604,0.08249
1601.83166,0.08291
1600.86728,0.08341
1599.90290,0.08385
1598.93853,0.08425
1597.97415,0.08471
1597.00977,0.08512
1596.04539,0.08551
1595.08101,0.08596
1594.11664,0.08641
1593.15226,0.08682
1592.18788,0.08721
1591.22350,0.08757
1590.25912,0.08792
1589.29475,0.08822
1588.33037,0.08843
1587.36599,0.08861
1586.40161,0.08887
1585.43724,0.08916
1584.47286,0.08932
1583.50848,0.08940
1582.54410,0.08948
1581.57972,0.08951
1580.61535,0.08944
1579.65097,0.08938
1578.68659,0.08935
1577.72221,0.08916
1576.75783,0.08856
1575.79346,0.08809
1574.82908,0.08819
1573.86470,0.08818
1572.90032,0.08785
1571.93594,0.08741
1570.97157,0.08685
1570.00719,0.08629
1569.04281,0.08598
1568.07843,0.08567
1567.11406,0.08520
1566.14968,0.08470
1565.18530,0.08412
1564.22092,0.08360
1563.25654,0.08312
1562.29217,0.08262
1561.32779,0.08182
1560.36341,0.08065
1559.39903,0.07979
1558.43465,0.07921
1557.47028,0.07888
1556.50590,0.07879
1555.54152,0.07834
1554.57714,0.07759
1553.61276,0.07695
1552.64839,0.07653
1551.68401,0.07602
1550.71963,0.07532
1549.75525,0.07472
1548.79088,0.07424
1547.82650,0.07375
1546.86212,0.07325
1545.89774,0.07262
1544.93336,0.07192
1543.96899,0.07150
1543.00461,0.07098
1542.04023,0.07028
1541.07585,0.06973
1540.11147,0.06897
1539.14710,0.06837
1538.18272,0.06838
1537.21834,0.06839
1536.25396,0.06805
1535.28959,0.06756
1534.32521,0.06700
1533.36083,0.06655
1532.39645,0.06631
1531.43207,0.06600
1530.46770,0.06565
1529.50332,0.06530
1528.53894,0.06491
1527.57456,0.06465
1526.61018,0.06440
1525.64581,0.06403
1524.68143,0.06377
1523.71705,0.06354
1522.75267,0.06306
1521.78829,0.06251
1520.82392,0.06228
1519.85954,0.06244
1518.89516,0.06257
1517.93078,0.06229
1516.96641,0.06193
1516.00203,0.06187
1515.03765,0.06188
1514.07327,0.06178
1513.10889,0.06154
1512.14452,0.06131
1511.18014,0.06124
1510.21576,0.06116
1509.25138,0.06094
1508.28700,0.06059
1507.32263,0.06019
1506.35825,0.05993
1505.39387,0.06007
1504.42949,0.06047
1503.46512,0.06063
1502.50074,0.06055
1501.53636,0.06055
1500.57198,0.06050
1499.60760,0.06036
1498.64323,0.06029
1497.67885,0.06028
1496.71447,0.06008
1495.75009,0.06004
1494.78571,0.06043
1493.82134,0.06062
1492.85696,0.06058
1491.89258,0.06051
1490.92820,0.06040
1489.96382,0.06047
1488.99945,0.06064
1488.03507,0.06079
1487.07069,0.06089
1486.10631,0.06108
1485.14194,0.06127
1484.17756,0.06136
1483.21318,0.06155
1482.24880,0.06170
1481.28442,0.06178
1480.32005,0.06195
1479.35567,0.06218
1478.39129,0.06245
1477.42691,0.06257
1476.46253,0.06265
1475.49816,0.06291
1474.53378,0.06316
1473.56940,0.06324
1472.60502,0.06335
1471.64065,0.06377
1470.67627,0.06428
1469.71189,0.06465
1468.74751,0.06499
1467.78313,0.06527
1466.81876,0.06540
1465.85438,0.06549
1464.89000,0.06566
1463.92562,0.06603
1462.96124,0.06646
1461.99687,0.06678
1461.03249,0.06711
1460.06811,0.06734
1459.10373,0.06744
1458.13935,0.06750
1457.17498,0.06759
1456.21060,0.06807
1455.24622,0.06878
1454.28184,0.06921
1453.31747,0.06953
1452.35309,0.06991
1451.38871,0.07024
1450.42433,0.07061
1449.45995,0.07098
1448.49558,0.07120
1447.53120,0.07150
1446.56682,0.07194
1445.60244,0.07237
1444.63806,0.07276
1443.67369,0.07308
1442.70931,0.07342
1441.74493,0.07380
1440.78055,0.07413
1439.81618,0.07441
1438.85180,0.07469
1437.88742,0.07489
1436.92304,0.07502
1435.95866,0.07539
1434.99429,0.07597
1434.02991,0.07644
1433.06553,0.07680
1432.10115,0.07710
1431.13677,0.07731
1430.17240,0.07747
1429.20802,0.07773
1428.24364,0.07804
1427.27926,0.07828
1426.31488,0.07852
1425.35051,0.07872
1424.38613,0.07890
1423.42175,0.07922
1422.45737,0.07957
1421.49300,0.07992
1420.52862,0.08003
1419.56424,0.07994
1418.59986,0.08020
1417.63548,0.08059
1416.67111,0.08089
1415.70673,0.08120
1414.74235,0.08142
1413.77797,0.08154
1412.81359,0.08162
1411.84922,0.08174
1410.88484,0.08193
1409.92046,0.08216
1408.95608,0.08237
1407.99171,0.08249
1407.02733,0.08262
1406.06295,0.08274
1405.09857,0.08285
1404.13419,0.08297
1403.16982,0.08315
1402.20544,0.08330
1401.24106,0.08340
1400.27668,0.08351
1399.31230,0.08350
1398.34793,0.08357
1397.38355,0.08379
1396.41917,0.08394
1395.45479,0.08401
1394.49041,0.08408
1393.52604,0.08428
1392.56166,0.08439
1391.59728,0.08437
1390.63290,0.08450
1389.66853,0.08465
1388.70415,0.08476
1387.73977,0.08482
1386.77539,0.08497
1385.81101,0.08513
1384.84664,0.08517
1383.88226,0.08524
1382.91788,0.08540
1381.95350,0.08550
1380.98912,0.08552
1380.02475,0.08556
1379.06037,0.08571
1378.09599,0.08587
1377.13161,0.08598
1376.16724,0.08604
1375.20286,0.08605
1374.23848,0.08606
1373.27410,0.08612
1372.30972,0.08629
1371.34535,0.08633
1370.38097,0.08631
1369.41659,0.08640
1368.45221,0.08648
1367.48783,0.08660
1366.52346,0.08668
1365.55908,0.08677
1364.59470,0.08694
1363.63032,0.08697
1362.66594,0.08697
1361.70157,0.08707
1360.73719,0.08719
1359.77281,0.08723
1358.80843,0.08723
1357.84406,0.08736
1356.87968,0.08755
1355.91530,0.08768
1354.95092,0.08777
1353.98654,0.08777
1353.02217,0.08781
1352.05779,0.08791
1351.09341,0.08802
1350.12903,0.08820
1349.16465,0.08831
1348.20028,0.08836
1347.23590,0.08851
1346.27152,0.08864
1345.30714,0.08871
1344.34276,0.08879
1343.37839,0.08892
1342.41401,0.08915
1341.44963,0.08928
1340.48525,0.08936
1339.52088,0.08950
1338.55650,0.08965
1337.59212,0.08978
1336.62774,0.08991
1335.66336,0.09004
1334.69899,0.09013
1333.73461,0.09030
1332.77023,0.09041
1331.80585,0.09044
1330.84147,0.09059
1329.87710,0.09076
1328.91272,0.09097
1327.94834,0.09116
1326.98396,0.09129
1326.01959,0.09149
1325.05521,0.09175
1324.09083,0.09202
1323.12645,0.09220
1322.16207,0.09243
1321.19770,0.09273
1320.23332,0.09300
1319.26894,0.09326
1318.30456,0.09352
1317.34018,0.09386
1316.37581,0.09415
1315.41143,0.09446
1314.44705,0.09477
1313.48267,0.09502
1312.51829,0.09535
1311.55392,0.09569
1310.58954,0.09601
1309.62516,0.09640
1308.66078,0.09676
1307.69641,0.09704
1306.73203,0.09737
1305.76765,0.09770
1304.80327,0.09799
1303.83889,0.09833
1302.87452,0.09873
1301.91014,0.09909
1300.94576,0.09936
1299.98138,0.09963
1299.01700,0.09994
1298.05263,0.10026
1297.08825,0.10065
1296.12387,0.10106
1295.15949,0.10139
1294.19512,0.10170
1293.23074,0.10203
1292.26636,0.10235
1291.30198,0.10267
1290.33760,0.10296
1289.37323,0.10321
1288.40885,0.10354
1287.44447,0.10395
1286.48009,0.10425
1285.51571,0.10445
1284.55134,0.10475
1283.58696,0.10508
1282.62258,0.10539
1281.65820,0.10575
1280.69382,0.10602
1279.72945,0.10624
1278.76507,0.10648
1277.80069,0.10672
1276.83631,0.10697
1275.87194,0.10721
1274.90756,0.10744
1273.94318,0.10765
1272.97880,0.10794
1272.01442,0.10822
1271.05005,0.10847
1270.08567,0.10868
1269.12129,0.10883
1268.15691,0.10903
1267.19253,0.10924
1266.22816,0.10937
1265.26378,0.10945
1264.29940,0.10957
1263.33502,0.10967
1262.37065,0.10975
1261.40627,0.10989
1260.44189,0.11001
1259.47751,0.11011
1258.51313,0.11016
1257.54876,0.11023
1256.58438,0.11040
1255.62000,0.11054
1254.65562,0.11066
1253.69124,0.11073
1252.72687,0.11081
1251.76249,0.11101
1250.79811,0.11112
1249.83373,0.11111
1248.86935,0.11119
1247.90498,0.11132
1246.94060,0.11138
1245.97622,0.11136
1245.01184,0.11132
1244.04747,0.11125
1243.08309,0.11121
1242.11871,0.11124
1241.15433,0.11129
1240.18995,0.11127
1239.22558,0.11125
1238.26120,0.11122
1237.29682,0.11114
1236.33244,0.11118
1235.36806,0.11125
1234.40369,0.11116
1233.43931,0.11110
1232.47493,0.11110
1231.51055,0.11103
1230.54618,0.11095
1229.58180,0.11094
1228.61742,0.11098
1227.65304,0.11100
1226.68866,0.11087
1225.72429,0.11078
1224.75991,0.11070
1223.79553,0.11049
1222.83115,0.11030
1221.86677,0.11017
1220.90240,0.11001
1219.93802,0.10974
1218.97364,0.10943
1218.00926,0.10925
1217.04488,0.10912
1216.08051,0.10893
1215.11613,0.10868
1214.15175,0.10839
1213.18737,0.10813
1212.22300,0.10796
1211.25862,0.10778
1210.29424,0.10760
1209.32986,0.10745
1208.36548,0.10720
1207.40111,0.10695
1206.43673,0.10677
1205.47235,0.10664
1204.50797,0.10648
1203.54359,0.10628
1202.57922,0.10613
1201.61484,0.10598
1200.65046,0.10583
1199.68608,0.10569
1198.72171,0.10558
1197.75733,0.10547
1196.79295,0.10529
1195.82857,0.10517
1194.86419,0.10503
1193.89982,0.10495
1192.93544,0.10492
1191.97106,0.10482
1191.00668,0.10470
1190.04230,0.10456
1189.07793,0.10451
1188.11355,0.10456
1187.14917,0.10448
1186.18479,0.10430
1185.22041,0.10422
1184.25604,0.10420
1183.29166,0.10411
1182.32728,0.10401
1181.36290,0.10392
1180.39853,0.10386
1179.43415,0.10384
1178.46977,0.10372
1177.50539,0.10355
1176.54101,0.10349
1175.57664,0.10350
1174.61226,0.10345
1173.64788,0.10342
1172.68350,0.10332
1171.71912,0.10320
1170.75475,0.10319
1169.79037,0.10309
1168.82599,0.10291
1167.86161,0.10279
1166.89724,0.10269
1165.93286,0.10256
1164.96848,0.10239
1164.00410,0.10235
1163.03972,0.10234
1162.07535,0.10233
1161.11097,0.10225
1160.14659,0.10198
1159.18221,0.10171
1158.21783,0.10143
1157.25346,0.10124
1156.28908,0.10107
1155.32470,0.10085
1154.36032,0.10072
1153.39594,0.10058
1152.43157,0.10043
1151.46719,0.10025
1150.50281,0.10005
1149.53843,0.09990
1148.57406,0.09971
1147.60968,0.09952
1146.64530,0.09933
1145.68092,0.09917
1144.71654,0.09905
1143.75217,0.09889
1142.78779,0.09873
1141.82341,0.09852
1140.85903,0.09831
1139.89465,0.09823
1138.93028,0.09818
1137.96590,0.09808
1137.00152,0.09789
1136.03714,0.09784
1135.07276,0.09786
1134.10839,0.09763
1133.14401,0.09738
1132.17963,0.09724
1131.21525,0.09716
1130.25088,0.09716
1129.28650,0.09719
1128.32212,0.09718
1127.35774,0.09699
1126.39336,0.09688
1125.42899,0.09697
1124.46461,0.09687
1123.50023,0.09661
1122.53585,0.09651
1121.57147,0.09648
1120.60710,0.09632
1119.64272,0.09631
1118.67834,0.09648
1117.71396,0.09653
1116.74959,0.09652
1115.78521,0.09643
1114.82083,0.09634
1113.85645,0.09631
1112.89207,0.09640
1111.92770,0.09661
1110.96332,0.09663
1109.99894,0.09656
1109.03456,0.09669
1108.07018,0.09685
1107.10581,0.09688
1106.14143,0.09685
1105.17705,0.09693
1104.21267,0.09700
1103.24829,0.09702
1102.28392,0.09717
1101.31954,0.09738
1100.35516,0.09745
1099.39078,0.09746
1098.42641,0.09763
1097.46203,0.09795
1096.49765,0.09804
1095.53327,0.09809
1094.56889,0.09831
1093.60452,0.09837
1092.64014,0.09841
1091.67576,0.09861
1090.71138,0.09883
1089.74700,0.09904
1088.78263,0.09931
1087.81825,0.09959
1086.85387,0.09971
1085.88949,0.09983
1084.92512,0.09995
1083.96074,0.10016
1082.99636,0.10046
1082.03198,0.10068
1081.06760,0.10096
1080.10323,0.10109
1079.13885,0.10124
1078.17447,0.10150
1077.21009,0.10160
1076.24571,0.10172
1075.28134,0.10193
1074.31696,0.10205
1073.35258,0.10208
1072.38820,0.10233
1071.42382,0.10272
1070.45945,0.10287
1069.49507,0.10294
1068.53069,0.10320
1067.56631,0.10350
1066.60194,0.10373
1065.63756,0.10396
1064.67318,0.10420
1063.70880,0.10442
1062.74442,0.10452
1061.78005,0.10461
1060.81567,0.10487
1059.85129,0.10497
1058.88691,0.10501
1057.92253,0.10518
1056.95816,0.10527
1055.99378,0.10535
1055.02940,0.10538
1054.06502,0.10539
1053.10065,0.10532
1052.13627,0.10522
1051.17189,0.10498
1050.20751,0.10461
1049.24313,0.10433
1048.27876,0.10403
1047.31438,0.10377
1046.35000,0.10353
1045.38562,0.10320
1044.42124,0.10274
1043.45687,0.10220
1042.49249,0.10170
1041.52811,0.10117
1040.56373,0.10073
1039.59935,0.10020
1038.63498,0.09940
1037.67060,0.09869
1036.70622,0.09816
1035.74184,0.09773
1034.77747,0.09716
1033.81309,0.09642
1032.84871,0.09572
1031.88433,0.09504
1030.91995,0.09449
1029.95558,0.09400
1028.99120,0.09339
1028.02682,0.09276
1027.06244,0.09222
1026.09806,0.09177
1025.13369,0.09141
1024.16931,0.09095
1023.20493,0.09033
1022.24055,0.08981
1021.27618,0.08943
1020.31180,0.08902
1019.34742,0.08850
1018.38304,0.08801
1017.41866,0.08747
1016.45429,0.08681
1015.48991,0.08652
1014.52553,0.08635
1013.56115,0.08587
1012.59677,0.08540
1011.63240,0.08509
1010.66802,0.08478
1009.70364,0.08451
1008.73926,0.08436
1007.77488,0.08414
1006.81051,0.08384
1005.84613,0.08356
1004.88175,0.08335
1003.91737,0.08316
1002.95300,0.08289
1001.98862,0.08273
1001.02424,0.08264
1000.05986,0.08247
999.09548,0.08238
998.13111,0.08227
997.16673,0.08207
996.20235,0.08193
995.23797,0.08180
994.27359,0.08160
993.30922,0.08143
992.34484,0.08123
991.38046,0.08104
990.41608,0.08100
989.45171,0.08111
988.48733,0.08108
987.52295,0.08074
986.55857,0.08047
985.59419,0.08024
984.62982,0.07997
983.66544,0.07980
982.70106,0.07970
981.73668,0.07976
980.77230,0.07964
979.80793,0.07934
978.84355,0.07906
977.87917,0.07877
976.91479,0.07865
975.95041,0.07849
974.98604,0.07824
974.02166,0.07800
973.05728,0.07772
972.09290,0.07753
971.12853,0.07742
970.16415,0.07713
969.19977,0.07662
968.23539,0.07628
967.27101,0.07608
966.30664,0.07594
965.34226,0.07585
964.37788,0.07562
963.41350,0.07530
962.44912,0.07498
961.48475,0.07474
960.52037,0.07450
959.55599,0.07425
958.59161,0.07403
957.62724,0.07372
956.66286,0.07336
955.69848,0.07298
954.73410,0.07275
953.76972,0.07258
952.80535,0.07226
951.84097,0.07197
950.87659,0.07176
949.91221,0.07158
948.94783,0.07139
947.98346,0.07113
947.01908,0.07086
946.05470,0.07082
945.09032,0.07076
944.12594,0.07034
943.16157,0.07002
942.19719,0.06997
941.23281,0.06977
940.26843,0.06930
939.30406,0.06893
938.33968,0.06875
937.37530,0.06847
936.41092,0.06814
935.44654,0.06791
934.48217,0.06775
933.51779,0.06757
932.55341,0.06738
931.58903,0.06736
930.62465,0.06736
929.66028,0.06705
928.69590,0.06659
927.73152,0.06639
926.76714,0.06634
925.80276,0.06609
924.83839,0.06577
923.87401,0.06558
922.90963,0.06544
921.94525,0.06528
920.98088,0.06506
920.01650,0.06474
919.05212,0.06457
918.08774,0.06448
917.12336,0.06422
916.15899,0.06404
915.19461,0.06392
914.23023,0.06377
913.26585,0.06363
912.30147,0.06357
911.33710,0.06369
910.37272,0.06374
909.40834,0.06359
908.44396,0.06336
907.47959,0.06334
906.51521,0.06354
905.55083,0.06375
904.58645,0.06382
903.62207,0.06355
902.65770,0.06317
901.69332,0.06303
900.72894,0.06314
899.76456,0.06298
898.80018,0.06278
897.83581,0.06312
896.87143,0.06332
895.90705,0.06321
894.94267,0.06320
893.97829,0.06311
893.01392,0.06295
892.04954,0.06300
891.08516,0.06310
890.12078,0.06312
889.15641,0.06334
888.19203,0.06339
887.22765,0.06317
886.26327,0.06305
885.29889,0.06310
884.33452,0.06318
883.37014,0.06292
882.40576,0.06288
881.44138,0.06319
880.47700,0.06330
879.51263,0.06354
878.54825,0.06376
877.58387,0.06382
876.61949,0.06397
875.65512,0.06403
874.69074,0.06393
873.72636,0.06381
872.76198,0.06377
871.79760,0.06369
870.83323,0.06367
869.86885,0.06388
868.90447,0.06399
867.94009,0.06385
866.97571,0.06385
866.01134,0.06405
865.04696,0.06423
864.08258,0.06418
863.11820,0.06400
862.15382,0.06419
861.18945,0.06435
860.22507,0.06420
859.26069,0.06419
858.29631,0.06425
857.33194,0.06440
856.36756,0.06452
855.40318,0.06442
854.43880,0.06423
853.47442,0.06409
852.51005,0.06412
851.54567,0.06422
850.58129,0.06419
849.61691,0.06409
848.65253,0.06404
847.68816,0.06400
846.72378,0.06407
845.75940,0.06417
844.79502,0.06412
843.83065,0.06402
842.86627,0.06396
841.90189,0.06396
840.93751,0.06387
839.97313,0.06370
839.00876,0.06357
838.04438,0.06350
837.08000,0.06354
836.11562,0.06342
835.15124,0.06308
834.18687,0.06297
833.22249,0.06308
832.25811,0.06294
831.29373,0.06260
830.32935,0.06249
829.36498,0.06267
828.40060,0.06288
827.43622,0.06274
826.47184,0.06232
825.50747,0.06221
824.54309,0.06228
823.57871,0.06211
822.61433,0.06196
821.64995,0.06195
820.68558,0.06177
819.72120,0.06159
818.75682,0.06156
817.79244,0.06147
816.82806,0.06136
815.86369,0.06132
814.89931,0.06130
813.93493,0.06124
812.97055,0.06121
812.00618,0.06108
811.04180,0.06091
810.07742,0.06102
809.11304,0.06107
808.14866,0.06090
807.18429,0.06067
806.21991,0.06051
805.25553,0.06043
804.29115,0.06023
803.32677,0.06013
802.36240,0.06005
801.39802,0.05995
800.43364,0.06009
799.46926,0.06013
798.50488,0.05985
797.54051,0.05972
796.57613,0.06004
795.61175,0.06017
794.64737,0.05983
793.68300,0.05966
792.71862,0.05964
791.75424,0.05962
790.78986,0.05952
789.82548,0.05935
788.86111,0.05932
787.89673,0.05938
786.93235,0.05954
785.96797,0.05952
785.00359,0.05926
784.03922,0.05932
783.07484,0.05936
782.11046,0.05913
781.14608,0.05914
780.18171,0.05914
779.21733,0.05908
778.25295,0.05913
777.28857,0.05896
776.32419,0.05890
775.35982,0.05901
774.39544,0.05912
773.43106,0.05923
772.46668,0.05908
771.50230,0.05895
770.53793,0.05897
769.57355,0.05890
768.60917,0.05876
767.64479,0.05893
766.68041,0.05922
765.71604,0.05908
764.75166,0.05890
763.78728,0.05877
762.82290,0.05866
761.85853,0.05858
760.89415,0.05865
759.92977,0.05906
758.96539,0.05916
758.00101,0.05908
757.03664,0.05902
756.07226,0.05901
755.10788,0.05929
754.14350,0.05921
753.17912,0.05901
752.21475,0.05891
751.25037,0.05890
750.28599,0.05897
749.32161,0.05911
748.35724,0.05953
747.39286,0.05949
746.42848,0.05902
745.46410,0.05884
744.49972,0.05896
743.53535,0.05915
742.57097,0.05912
741.60659,0.05895
740.64221,0.05885
739.67783,0.05900
738.71346,0.05910
737.74908,0.05898
736.78470,0.05912
735.82032,0.05944
734.85594,0.05970
733.89157,0.05967
732.92719,0.05959
731.96281,0.05968
730.99843,0.05948
730.03406,0.05938
729.06968,0.05957
728.10530,0.05949
727.14092,0.05956
726.17654,0.05982
725.21217,0.05979
724.24779,0.05975
723.28341,0.05977
722.31903,0.05989
721.35465,0.06004
720.39028,0.05990
719.42590,0.05986
718.46152,0.06015
717.49714,0.06033
716.53276,0.06022
715.56839,0.06033
714.60401,0.06045
713.63963,0.06040
712.67525,0.06046
711.71088,0.06032
710.74650,0.06021
709.78212,0.06021
708.81774,0.06016
707.85336,0.06040
706.88899,0.06073
705.92461,0.06081
704.96023,0.06074
703.99585,0.06085
703.03147,0.06095
702.06710,0.06079
701.10272,0.06070
700.13834,0.06065
699.17396,0.06074
698.20959,0.06091
697.24521,0.06087
696.28083,0.06085
695.31645,0.06096
694.35207,0.06111
693.38770,0.06106
692.42332,0.06099
691.45894,0.06103
690.49456,0.06091
689.53018,0.06095
688.56581,0.06115
687.60143,0.06126
686.63705,0.06135
685.67267,0.06144
684.70829,0.06147
683.74392,0.06133
682.77954,0.06112
681.81516,0.06102
680.85078,0.06114
679.88641,0.06131
678.92203,0.06126
677.95765,0.06125
676.99327,0.06120
676.02889,0.06114
675.06452,0.06113
674.10014,0.06101
673.13576,0.06103
672.17138,0.06114
671.20700,0.06125
670.24263,0.06135
669.27825,0.06137
668.31387,0.06124
667.34949,0.06110
666.38512,0.06120
665.42074,0.06127
664.45636,0.06138
663.49198,0.06134
662.52760,0.06128
661.56323,0.06151
660.59885,0.06153
659.63447,0.06157
658.67009,0.06170
657.70571,0.06171
656.74134,0.06178
655.77696,0.06170
654.81258,0.06166
653.84820,0.06167
652.88382,0.06170
651.91945,0.06180
650.95507,0.06187
649.99069,0.06186
649.02631,0.06171
648.06194,0.06170
647.09756,0.06186
646.13318,0.06199
645.16880,0.06190
644.20442,0.06168
643.24005,0.06179
642.27567,0.06194
641.31129,0.06194
640.34691,0.06187
639.38253,0.06187
638.41816,0.06215
637.45378,0.06213
636.48940,0.06198
635.52502,0.06219
634.56065,0.06200
633.59627,0.06159
632.63189,0.06162
631.66751,0.06165
630.70313,0.06170
629.73876,0.06191
628.77438,0.06238
627.81000,0.06317
626.84562,0.06357
625.88124,0.06453
624.91687,0.06686
623.95249,0.07002
622.98811,0.07112
622.02373,0.06480
621.05935,0.06243
620.09498,0.06451
619.13060,0.06166
618.16622,0.06041
617.20184,0.06121
616.23747,0.06105
615.27309,0.06027
614.30871,0.05857
613.34433,0.05801
612.37995,0.06020
611.41558,0.06501
610.45120,0.06869
609.48682,0.06668
608.52244,0.06235
607.55806,0.06310
606.59369,0.06698
605.62931,0.06624
604.66493,0.06123
603.70055,0.05803
602.73618,0.05991
601.77180,0.06293
600.80742,0.06308
599.84304,0.06310
598.87866,0.06477
597.91429,0.06587
596.94991,0.06542
595.98553,0.06506
595.02115,0.06513
594.05677,0.06505
593.09240,0.06511
592.12802,0.06530
591.16364,0.06508
590.19926,0.06477
589.23488,0.06500
588.27051,0.06528
587.30613,0.06543
586.34175,0.06584
585.37737,0.06579
584.41300,0.06539
583.44862,0.06565
582.48424,0.06590
581.51986,0.06535
580.55548,0.06537
579.59111,0.06617
578.62673,0.06620
577.66235,0.06592
576.69797,0.06556
575.73359,0.06513
574.76922,0.06526
573.80484,0.06522
572.84046,0.06499
571.87608,0.06474
570.91171,0.06467
569.94733,0.06488
568.98295,0.06460
568.01857,0.06453
567.05419,0.06435
566.08982,0.06370
565.12544,0.06335
564.16106,0.06324
563.19668,0.06337
562.23230,0.06294
561.26793,0.06213
560.30355,0.06213
559.33917,0.06229
558.37479,0.06216
557.41041,0.06229
556.44604,0.06236
555.48166,0.06237
554.51728,0.06263
553.55290,0.06256
552.58853,0.06249
551.62415,0.06263
550.65977,0.06221
549.69539,0.06173
548.73101,0.06195
547.76664,0.06200
546.80226,0.06181
545.83788,0.06201
544.87350,0.06177
543.90912,0.06140
542.94475,0.06158
541.98037,0.06186
541.01599,0.06176
540.05161,0.06120
539.08724,0.06165
538.12286,0.06182
537.15848,0.06083
536.19410,0.06073
535.22972,0.06110
534.26535,0.06166
533.30097,0.06213
532.33659,0.06180
531.37221,0.06120
530.40783,0.06058
529.44346,0.06055
528.47908,0.06083
527.51470,0.06079
526.55032,0.06086
525.58594,0.06121
524.62157,0.06123
523.65719,0.06084
522.69281,0.06094
521.72843,0.06163
520.76406,0.06169
519.79968,0.06064
518.83530,0.05990
517.87092,0.05968
516.90654,0.05969
515.94217,0.06026
514.97779,0.06066
514.01341,0.06101
513.04903,0.06088
512.08465,0.06018
511.12028,0.06014
510.15590,0.06033
509.19152,0.06025
508.22714,0.06001
507.26276,0.05993
506.29839,0.05993
505.33401,0.05979
504.36963,0.05997
503.40525,0.06026
502.44088,0.06010
501.47650,0.05972
500.51212,0.05979
499.54774,0.05995
498.58336,0.06007
497.61899,0.06061
496.65461,0.06085
495.69023,0.06068
494.72585,0.06029
493.76147,0.05987
492.79710,0.05965
491.83272,0.05903
490.86834,0.05870
489.90396,0.05911
488.93959,0.05896
487.97521,0.05889
487.01083,0.05964
486.04645,0.05987
485.08207,0.05962
484.11770,0.05969
483.15332,0.05975
482.18894,0.05948
481.22456,0.05948
480.26018,0.05954
479.29581,0.05919
478.33143,0.05894
477.36705,0.05873
476.40267,0.05896
475.43829,0.05933
474.47392,0.05927
473.50954,0.05912
472.54516,0.05880
471.58078,0.05882
470.61641,0.05850
469.65203,0.05827
468.68765,0.05908
467.72327,0.05945
466.75889,0.05932
465.79452,0.05907
464.83014,0.05880
463.86576,0.05839
462.90138,0.05839
461.93700,0.05911
460.97263,0.05908
460.00825,0.05885
459.04387,0.05915
458.07949,0.05955
457.11512,0.05923
456.15074,0.05864
455.18636,0.05887
454.22198,0.05885
453.25760,0.05875
452.29323,0.05886
451.32885,0.05836
450.36447,0.05768
449.40009,0.05747
448.43571,0.05781
447.47134,0.05820
446.50696,0.05839
445.54258,0.05827
444.57820,0.05795
443.61382,0.05773
442.64945,0.05770
441.68507,0.05804
440.72069,0.05846
439.75631,0.05830
438.79194,0.05797
437.82756,0.05815
436.86318,0.05813
435.89880,0.05777
434.93442,0.05741
433.97005,0.05729
433.00567,0.05759
432.04129,0.05733
431.07691,0.05697
430.11253,0.05705
429.14816,0.05697
428.18378,0.05704
427.21940,0.05689
426.25502,0.05636
425.29065,0.05609
424.32627,0.05614
423.36189,0.05619
422.39751,0.05624
421.43313,0.05597
420.46876,0.05542
419.50438,0.05552
418.54000,0.05579
417.57562,0.05564
416.61124,0.05567
415.64687,0.05576
414.68249,0.05547
413.71811,0.05525
412.75373,0.05554
411.78935,0.05548
410.82498,0.05523
409.86060,0.05528
408.89622,0.05506
407.93184,0.05479
406.96747,0.05489
406.00309,0.05492
405.03871,0.05436
404.07433,0.05394
403.10995,0.05402
402.14558,0.05386
401.18120,0.05345
400.21682,0.05311
399.25244,0.05333
