1900.78880,0.57655
1899.82442,0.57719
1898.86005,0.57763
1897.89567,0.57798
1896.93129,0.57701
1895.96691,0.57601
1895.00253,0.57605
1894.03816,0.57631
1893.07378,0.57661
1892.10940,0.57627
1891.14502,0.57588
1890.18065,0.57557
1889.21627,0.57569
1888.25189,0.57643
1887.28751,0.57699
1886.32313,0.57721
1885.35876,0.57673
1884.39438,0.57680
1883.43000,0.57759
1882.46562,0.57807
1881.50124,0.57759
1880.53687,0.57631
1879.57249,0.57583
1878.60811,0.57569
1877.64373,0.57567
1876.67935,0.57556
1875.71498,0.57490
1874.75060,0.57502
1873.78622,0.57576
1872.82184,0.57592
1871.85747,0.57543
1870.89309,0.57544
1869.92871,0.57513
1868.96433,0.57433
1867.99995,0.57466
1867.03558,0.57505
1866.07120,0.57546
1865.10682,0.57546
1864.14244,0.57469
1863.17806,0.57487
1862.21369,0.57533
1861.24931,0.57546
1860.28493,0.57504
1859.32055,0.57422
1858.35618,0.57386
1857.39180,0.57386
1856.42742,0.57475
1855.46304,0.57542
1854.49866,0.57484
1853.53429,0.57430
1852.56991,0.57406
1851.60553,0.57427
1850.64115,0.57458
1849.67677,0.57464
1848.71240,0.57505
1847.74802,0.57524
1846.78364,0.57475
1845.81926,0.57401
1844.85488,0.57394
1843.89051,0.57439
1842.92613,0.57393
1841.96175,0.57351
1840.99737,0.57372
1840.03300,0.57399
1839.06862,0.57433
1838.10424,0.57420
1837.13986,0.57398
1836.17548,0.57408
1835.21111,0.57414
1834.24673,0.57382
1833.28235,0.57384
1832.31797,0.57460
1831.35359,0.57436
1830.38922,0.57365
1829.42484,0.57366
1828.46046,0.57337
1827.49608,0.57333
1826.53171,0.57377
1825.56733,0.57394
1824.60295,0.57389
1823.63857,0.57421
1822.67419,0.57491
1821.70982,0.57469
1820.74544,0.57447
1819.78106,0.57457
1818.81668,0.57362
1817.85230,0.57305
1816.88793,0.57353
1815.92355,0.57423
1814.95917,0.57482
1813.99479,0.57497
1813.03041,0.57472
1812.06604,0.57422
1811.10166,0.57422
1810.13728,0.57453
1809.17290,0.57466
1808.20853,0.57474
1807.24415,0.57465
1806.27977,0.57481
1805.31539,0.57487
1804.35101,0.57464
1803.38664,0.57467
1802.42226,0.57492
1801.45788,0.57541
1800.49350,0.57571
1799.52912,0.57553
1798.56475,0.57545
1797.60037,0.57583
1796.63599,0.57616
1795.67161,0.57618
1794.70724,0.57618
1793.74286,0.57601
1792.77848,0.57587
1791.81410,0.57599
1790.84972,0.57666
1789.88535,0.57757
1788.92097,0.57783
1787.95659,0.57797
1786.99221,0.57832
1786.02783,0.57870
1785.06346,0.57912
1784.09908,0.57939
1783.13470,0.57958
1782.17032,0.57961
1781.20594,0.57990
1780.24157,0.58074
1779.27719,0.58145
1778.31281,0.58178
1777.34843,0.58220
1776.38406,0.58280
1775.41968,0.58345
1774.45530,0.58400
1773.49092,0.58412
1772.52654,0.58444
1771.56217,0.58546
1770.59779,0.58636
1769.63341,0.58688
1768.66903,0.58744
1767.70465,0.58825
1766.74028,0.58917
1765.77590,0.58985
1764.81152,0.59035
1763.84714,0.59090
1762.88276,0.59129
1761.91839,0.59190
1760.95401,0.59284
1759.98963,0.59344
1759.02525,0.59372
1758.06088,0.59404
1757.09650,0.59473
1756.13212,0.59541
1755.16774,0.59578
1754.20336,0.59651
1753.23899,0.59695
1752.27461,0.59681
1751.31023,0.59739
1750.34585,0.59825
1749.38147,0.59838
1748.41710,0.59855
1747.45272,0.59917
1746.48834,0.59971
1745.52396,0.60014
1744.55959,0.60057
1743.59521,0.60086
1742.63083,0.60112
1741.66645,0.60158
1740.70207,0.60189
1739.73770,0.60206
1738.77332,0.60237
1737.80894,0.60232
1736.84456,0.60227
1735.88018,0.60217
1734.91581,0.60169
1733.95143,0.60202
1732.98705,0.60297
1732.02267,0.60327
1731.05829,0.60300
1730.09392,0.60288
1729.12954,0.60301
1728.16516,0.60308
1727.20078,0.60321
1726.23641,0.60310
1725.27203,0.60300
1724.30765,0.60303
1723.34327,0.60269
1722.37889,0.60243
1721.41452,0.60246
1720.45014,0.60241
1719.48576,0.60194
1718.52138,0.60119
1717.55700,0.60098
1716.59263,0.60128
1715.62825,0.60140
1714.66387,0.60128
1713.69949,0.60123
1712.73512,0.60128
1711.77074,0.60131
1710.80636,0.60115
1709.84198,0.60084
1708.87760,0.60054
1707.91323,0.60028
1706.94885,0.60025
1705.98447,0.60014
1705.02009,0.59997
1704.05571,0.60006
1703.09134,0.60030
1702.12696,0.60025
1701.16258,0.59951
1700.19820,0.59943
1699.23382,0.60048
1698.26945,0.60137
1697.30507,0.60103
1696.34069,0.59991
1695.37631,0.60038
1694.41194,0.60155
1693.44756,0.60198
1692.48318,0.60221
1691.51880,0.60240
1690.55442,0.60263
1689.59005,0.60293
1688.62567,0.60342
1687.66129,0.60396
1686.69691,0.60416
1685.73253,0.60365
1684.76816,0.60357
1683.80378,0.60483
1682.83940,0.60596
1681.87502,0.60677
1680.91065,0.60718
1679.94627,0.60783
1678.98189,0.60896
1678.01751,0.60967
1677.05313,0.61011
1676.08876,0.61019
1675.12438,0.61069
1674.16000,0.61193
1673.19562,0.61291
1672.23124,0.61366
1671.26687,0.61443
1670.30249,0.61500
1669.33811,0.61552
1668.37373,0.61679
1667.40935,0.61807
1666.44498,0.61894
1665.48060,0.61977
1664.51622,0.62058
1663.55184,0.62149
1662.58747,0.62253
1661.62309,0.62391
1660.65871,0.62502
1659.69433,0.62608
1658.72995,0.62734
1657.76558,0.62854
1656.80120,0.62970
1655.83682,0.63059
1654.87244,0.63139
1653.90806,0.63149
1652.94369,0.63234
1651.97931,0.63493
1651.01493,0.63690
1650.05055,0.63820
1649.08618,0.63920
1648.12180,0.64020
1647.15742,0.64133
1646.19304,0.64279
1645.22866,0.64476
1644.26429,0.64622
1643.29991,0.64735
1642.33553,0.64875
1641.37115,0.65040
1640.40677,0.65203
1639.44240,0.65352
1638.47802,0.65492
1637.51364,0.65621
1636.54926,0.65733
1635.58488,0.65884
1634.62051,0.66103
1633.65613,0.66265
1632.69175,0.66425
1631.72737,0.66615
1630.76300,0.66783
1629.79862,0.66951
1628.83424,0.67100
1627.86986,0.67283
1626.90548,0.67454
1625.94111,0.67598
1624.97673,0.67750
1624.01235,0.67895
1623.04797,0.68071
1622.08359,0.68236
1621.11922,0.68392
1620.15484,0.68551
1619.19046,0.68713
1618.22608,0.68841
1617.26171,0.68927
1616.29733,0.69116
1615.33295,0.69333
1614.36857,0.69479
1613.40419,0.69631
1612.43982,0.69804
1611.47544,0.69957
1610.51106,0.70076
1609.54668,0.70205
1608.58230,0.70357
1607.61793,0.70499
1606.65355,0.70612
1605.68917,0.70725
1604.72479,0.70856
1603.76041,0.70975
1602.79604,0.71095
1601.83166,0.71211
1600.86728,0.71312
1599.90290,0.71424
1598.93853,0.71502
1597.97415,0.71577
1597.00977,0.71702
1596.04539,0.71789
1595.08101,0.71846
1594.11664,0.71912
1593.15226,0.71968
1592.18788,0.72022
1591.22350,0.72043
1590.25912,0.72056
1589.29475,0.72076
1588.33037,0.72095
1587.36599,0.72120
1586.40161,0.72129
1585.43724,0.72139
1584.47286,0.72125
1583.50848,0.72095
1582.54410,0.72081
1581.57972,0.72062
1580.61535,0.72028
1579.65097,0.71976
1578.68659,0.71940
1577.72221,0.71863
1576.75783,0.71723
1575.79346,0.71678
1574.82908,0.71695
1573.86470,0.71645
1572.90032,0.71559
1571.93594,0.71473
1570.97157,0.71363
1570.00719,0.71262
1569.04281,0.71217
1568.07843,0.71142
1567.11406,0.71045
1566.14968,0.70962
1565.18530,0.70850
1564.22092,0.70747
1563.25654,0.70646
1562.29217,0.70540
1561.32779,0.70396
1560.36341,0.70223
1559.39903,0.70102
1558.43465,0.69992
1557.47028,0.69955
1556.50590,0.69927
1555.54152,0.69805
1554.57714,0.69670
1553.61276,0.69564
1552.64839,0.69478
1551.68401,0.69363
1550.71963,0.69233
1549.75525,0.69143
1548.79088,0.69069
1547.82650,0.68972
1546.86212,0.68829
1545.89774,0.68694
1544.93336,0.68609
1543.96899,0.68526
1543.00461,0.68399
1542.04023,0.68286
1541.07585,0.68177
1540.11147,0.68006
1539.14710,0.67920
1538.18272,0.67927
1537.21834,0.67877
1536.25396,0.67777
1535.28959,0.67663
1534.32521,0.67564
1533.36083,0.67502
1532.39645,0.67452
1531.43207,0.67372
1530.46770,0.67293
1529.50332,0.67209
1528.53894,0.67115
1527.57456,0.67048
1526.61018,0.66976
1525.64581,0.66920
1524.68143,0.66870
1523.71705,0.66780
1522.75267,0.66653
1521.78829,0.66533
1520.82392,0.66508
1519.85954,0.66516
1518.89516,0.66466
1517.93078,0.66396
1516.96641,0.66350
1516.00203,0.66315
1515.03765,0.66273
1514.07327,0.66217
1513.10889,0.66135
1512.14452,0.66096
1511.18014,0.66091
1510.21576,0.66048
1509.25138,0.65982
1508.28700,0.65880
1507.32263,0.65769
1506.35825,0.65718
1505.39387,0.65743
1504.42949,0.65769
1503.46512,0.65753
1502.50074,0.65721
1501.53636,0.65672
1500.57198,0.65632
1499.60760,0.65597
1498.64323,0.65570
1497.67885,0.65523
1496.71447,0.65442
1495.75009,0.65453
1494.78571,0.65505
1493.82134,0.65483
1492.85696,0.65438
1491.89258,0.65399
1490.92820,0.65363
1489.96382,0.65333
1488.99945,0.65312
1488.03507,0.65290
1487.07069,0.65287
1486.10631,0.65299
1485.14194,0.65286
1484.17756,0.65268
1483.21318,0.65243
1482.24880,0.65208
1481.28442,0.65207
1480.32005,0.65209
1479.35567,0.65188
1478.39129,0.65192
1477.42691,0.65190
1476.46253,0.65174
1475.49816,0.65166
1474.53378,0.65131
1473.56940,0.65114
1472.60502,0.65129
1471.64065,0.65163
1470.67627,0.65185
1469.71189,0.65167
1468.74751,0.65176
1467.78313,0.65172
1466.81876,0.65164
1465.85438,0.65174
1464.89000,0.65171
1463.92562,0.65215
1462.96124,0.65227
1461.99687,0.65210
1461.03249,0.65226
1460.06811,0.65241
1459.10373,0.65235
1458.13935,0.65163
1457.17498,0.65123
1456.21060,0.65193
1455.24622,0.65257
1454.28184,0.65264
1453.31747,0.65258
1452.35309,0.65273
1451.38871,0.65289
1450.42433,0.65301
1449.45995,0.65314
1448.49558,0.65321
1447.53120,0.65327
1446.56682,0.65337
1445.60244,0.65349
1444.63806,0.65361
1443.67369,0.65375
1442.70931,0.65389
1441.74493,0.65415
1440.78055,0.65426
1439.81618,0.65419
1438.85180,0.65438
1437.88742,0.65426
1436.92304,0.65410
1435.95866,0.65463
1434.99429,0.65493
1434.02991,0.65497
1433.06553,0.65552
1432.10115,0.65595
1431.13677,0.65598
1430.17240,0.65607
1429.20802,0.65618
1428.24364,0.65630
1427.27926,0.65642
1426.31488,0.65664
1425.35051,0.65679
1424.38613,0.65694
1423.42175,0.65726
1422.45737,0.65750
1421.49300,0.65768
1420.52862,0.65757
1419.56424,0.65753
1418.59986,0.65797
1417.63548,0.65852
1416.67111,0.65923
1415.70673,0.65968
1414.74235,0.65971
1413.77797,0.65985
1412.81359,0.66012
1411.84922,0.66040
1410.88484,0.66063
1409.92046,0.66092
1408.95608,0.66133
1407.99171,0.66180
1407.02733,0.66211
1406.06295,0.66252
1405.09857,0.66311
1404.13419,0.66354
1403.16982,0.66402
1402.20544,0.66441
1401.24106,0.66456
1400.27668,0.66475
1399.31230,0.66525
1398.34793,0.66583
1397.38355,0.66626
1396.41917,0.66674
1395.45479,0.66688
1394.49041,0.66729
1393.52604,0.66822
1392.56166,0.66877
1391.59728,0.66920
1390.63290,0.66942
1389.66853,0.66954
1388.70415,0.67000
1387.73977,0.67054
1386.77539,0.67109
1385.81101,0.67144
1384.84664,0.67174
1383.88226,0.67218
1382.91788,0.67260
1381.95350,0.67310
1380.98912,0.67363
1380.02475,0.67410
1379.06037,0.67467
1378.09599,0.67521
1377.13161,0.67539
1376.16724,0.67556
1375.20286,0.67598
1374.23848,0.67659
1373.27410,0.67731
1372.30972,0.67787
1371.34535,0.67801
1370.38097,0.67803
1369.41659,0.67853
1368.45221,0.67920
1367.48783,0.67970
1366.52346,0.68005
1365.55908,0.68026
1364.59470,0.68071
1363.63032,0.68120
1362.66594,0.68170
1361.70157,0.68215
1360.73719,0.68247
1359.77281,0.68298
1358.80843,0.68355
1357.84406,0.68414
1356.87968,0.68457
1355.91530,0.68486
1354.95092,0.68532
1353.98654,0.68578
1353.02217,0.68617
1352.05779,0.68671
1351.09341,0.68731
1350.12903,0.68770
1349.16465,0.68810
1348.20028,0.68856
1347.23590,0.68887
1346.27152,0.68933
1345.30714,0.68994
1344.34276,0.69049
1343.37839,0.69090
1342.41401,0.69111
1341.44963,0.69145
1340.48525,0.69202
1339.52088,0.69248
1338.55650,0.69270
1337.59212,0.69291
1336.62774,0.69355
1335.66336,0.69416
1334.69899,0.69429
1333.73461,0.69465
1332.77023,0.69499
1331.80585,0.69509
1330.84147,0.69548
1329.87710,0.69605
1328.91272,0.69655
1327.94834,0.69696
1326.98396,0.69752
1326.01959,0.69802
1325.05521,0.69839
1324.09083,0.69885
1323.12645,0.69931
1322.16207,0.69979
1321.19770,0.70021
1320.23332,0.70066
1319.26894,0.70103
1318.30456,0.70141
1317.34018,0.70209
1316.37581,0.70273
1315.41143,0.70338
1314.44705,0.70392
1313.48267,0.70424
1312.51829,0.70456
1311.55392,0.70502
1310.58954,0.70557
1309.62516,0.70603
1308.66078,0.70652
1307.69641,0.70699
1306.73203,0.70748
1305.76765,0.70780
1304.80327,0.70811
1303.83889,0.70869
1302.87452,0.70895
1301.91014,0.70926
1300.94576,0.70962
1299.98138,0.70985
1299.01700,0.71050
1298.05263,0.71113
1297.08825,0.71135
1296.12387,0.71155
1295.15949,0.71224
1294.19512,0.71302
1293.23074,0.71334
1292.26636,0.71364
1291.30198,0.71411
1290.33760,0.71434
1289.37323,0.71450
1288.40885,0.71506
1287.44447,0.71557
1286.48009,0.71584
1285.51571,0.71634
1284.55134,0.71691
1283.58696,0.71737
1282.62258,0.71776
1281.65820,0.71808
1280.69382,0.71818
1279.72945,0.71829
1278.76507,0.71852
1277.80069,0.71889
1276.83631,0.71931
1275.87194,0.71944
1274.90756,0.71969
1273.94318,0.71990
1272.97880,0.71994
1272.01442,0.72009
1271.05005,0.72010
1270.08567,0.72039
1269.12129,0.72086
1268.15691,0.72110
1267.19253,0.72125
1266.22816,0.72126
1265.26378,0.72111
1264.29940,0.72098
1263.33502,0.72095
1262.37065,0.72068
1261.40627,0.72051
1260.44189,0.72064
1259.47751,0.72056
1258.51313,0.72046
1257.54876,0.72050
1256.58438,0.72066
1255.62000,0.72074
1254.65562,0.72058
1253.69124,0.72016
1252.72687,0.71983
1251.76249,0.71994
1250.79811,0.72001
1249.83373,0.71989
1248.86935,0.71950
1247.90498,0.71899
1246.94060,0.71879
1245.97622,0.71858
1245.01184,0.71831
1244.04747,0.71786
1243.08309,0.71719
1242.11871,0.71685
1241.15433,0.71680
1240.18995,0.71676
1239.22558,0.71644
1238.26120,0.71575
1237.29682,0.71503
1236.33244,0.71465
1235.36806,0.71411
1234.40369,0.71329
1233.43931,0.71303
1232.47493,0.71294
1231.51055,0.71241
1230.54618,0.71175
1229.58180,0.71109
1228.61742,0.71050
1227.65304,0.70996
1226.68866,0.70929
1225.72429,0.70858
1224.75991,0.70792
1223.79553,0.70715
1222.83115,0.70641
1221.86677,0.70592
1220.90240,0.70522
1219.93802,0.70426
1218.97364,0.70347
1218.00926,0.70295
1217.04488,0.70250
1216.08051,0.70185
1215.11613,0.70116
1214.15175,0.70035
1213.18737,0.69946
1212.22300,0.69904
1211.25862,0.69870
1210.29424,0.69793
1209.32986,0.69709
1208.36548,0.69643
1207.40111,0.69581
1206.43673,0.69493
1205.47235,0.69413
1204.50797,0.69371
1203.54359,0.69304
1202.57922,0.69211
1201.61484,0.69153
1200.65046,0.69109
1199.68608,0.69040
1198.72171,0.68958
1197.75733,0.68873
1196.79295,0.68800
1195.82857,0.68761
1194.86419,0.68738
1193.89982,0.68700
1192.93544,0.68631
1191.97106,0.68527
1191.00668,0.68415
1190.04230,0.68356
1189.07793,0.68330
1188.11355,0.68270
1187.14917,0.68206
1186.18479,0.68159
1185.22041,0.68118
1184.25604,0.68079
1183.29166,0.68017
1182.32728,0.67950
1181.36290,0.67873
1180.39853,0.67771
1179.43415,0.67706
1178.46977,0.67672
1177.50539,0.67614
1176.54101,0.67543
1175.57664,0.67477
1174.61226,0.67388
1173.64788,0.67320
1172.68350,0.67298
1171.71912,0.67263
1170.75475,0.67226
1169.79037,0.67158
1168.82599,0.67058
1167.86161,0.67006
1166.89724,0.66965
1165.93286,0.66890
1164.96848,0.66811
1164.00410,0.66773
1163.03972,0.66738
1162.07535,0.66664
1161.11097,0.66585
1160.14659,0.66503
1159.18221,0.66450
1158.21783,0.66402
1157.25346,0.66319
1156.28908,0.66279
1155.32470,0.66266
1154.36032,0.66201
1153.39594,0.66094
1152.43157,0.65980
1151.46719,0.65880
1150.50281,0.65838
1149.53843,0.65832
1148.57406,0.65774
1147.60968,0.65679
1146.64530,0.65620
1145.68092,0.65607
1144.71654,0.65590
1143.75217,0.65523
1142.78779,0.65442
1141.82341,0.65386
1140.85903,0.65320
1139.89465,0.65223
1138.93028,0.65145
1137.96590,0.65076
1137.00152,0.65017
1136.03714,0.65007
1135.07276,0.64964
1134.10839,0.64881
1133.14401,0.64838
1132.17963,0.64784
1131.21525,0.64692
1130.25088,0.64634
1129.28650,0.64606
1128.32212,0.64542
1127.35774,0.64459
1126.39336,0.64425
1125.42899,0.64381
1124.46461,0.64295
1123.50023,0.64220
1122.53585,0.64148
1121.57147,0.64089
1120.60710,0.64015
1119.64272,0.63933
1118.67834,0.63928
1117.71396,0.63920
1116.74959,0.63846
1115.78521,0.63771
1114.82083,0.63698
1113.85645,0.63634
1112.89207,0.63595
1111.92770,0.63544
1110.96332,0.63462
1109.99894,0.63391
1109.03456,0.63337
1108.07018,0.63290
1107.10581,0.63225
1106.14143,0.63143
1105.17705,0.63105
1104.21267,0.63053
1103.24829,0.62972
1102.28392,0.62916
1101.31954,0.62843
1100.35516,0.62783
1099.39078,0.62747
1098.42641,0.62707
1097.46203,0.62674
1096.49765,0.62613
1095.53327,0.62524
1094.56889,0.62434
1093.60452,0.62373
1092.64014,0.62326
1091.67576,0.62276
1090.71138,0.62228
1089.74700,0.62163
1088.78263,0.62128
1087.81825,0.62076
1086.85387,0.61986
1085.88949,0.61950
1084.92512,0.61912
1083.96074,0.61839
1082.99636,0.61779
1082.03198,0.61718
1081.06760,0.61657
1080.10323,0.61637
1079.13885,0.61612
1078.17447,0.61500
1077.21009,0.61409
1076.24571,0.61381
1075.28134,0.61324
1074.31696,0.61261
1073.35258,0.61206
1072.38820,0.61172
1071.42382,0.61160
1070.45945,0.61129
1069.49507,0.61072
1068.53069,0.60995
1067.56631,0.60941
1066.60194,0.60908
1065.63756,0.60869
1064.67318,0.60840
1063.70880,0.60800
1062.74442,0.60723
1061.78005,0.60652
1060.81567,0.60601
1059.85129,0.60529
1058.88691,0.60484
1057.92253,0.60468
1056.95816,0.60437
1055.99378,0.60425
1055.02940,0.60385
1054.06502,0.60286
1053.10065,0.60208
1052.13627,0.60167
1051.17189,0.60117
1050.20751,0.60080
1049.24313,0.60048
1048.27876,0.59995
1047.31438,0.59956
1046.35000,0.59910
1045.38562,0.59886
1044.42124,0.59871
1043.45687,0.59796
1042.49249,0.59747
1041.52811,0.59718
1040.56373,0.59654
1039.59935,0.59625
1038.63498,0.59614
1037.67060,0.59569
1036.70622,0.59499
1035.74184,0.59421
1034.77747,0.59341
1033.81309,0.59288
1032.84871,0.59260
1031.88433,0.59224
1030.91995,0.59198
1029.95558,0.59167
1028.99120,0.59099
1028.02682,0.59018
1027.06244,0.58963
1026.09806,0.58951
1025.13369,0.58948
1024.16931,0.58911
1023.20493,0.58840
1022.24055,0.58774
1021.27618,0.58740
1020.31180,0.58721
1019.34742,0.58694
1018.38304,0.58643
1017.41866,0.58544
1016.45429,0.58436
1015.48991,0.58417
1014.52553,0.58424
1013.56115,0.58357
1012.59677,0.58307
1011.63240,0.58275
1010.66802,0.58219
1009.70364,0.58192
1008.73926,0.58163
1007.77488,0.58131
1006.81051,0.58090
1005.84613,0.58025
1004.88175,0.57975
1003.91737,0.57907
1002.95300,0.57851
1001.98862,0.57843
1001.02424,0.57839
1000.05986,0.57832
999.09548,0.57805
998.13111,0.57746
997.16673,0.57685
996.20235,0.57663
995.23797,0.57649
994.27359,0.57608
993.30922,0.57541
992.34484,0.57489
991.38046,0.57491
990.41608,0.57439
989.45171,0.57352
988.48733,0.57333
987.52295,0.57309
986.55857,0.57280
985.59419,0.57234
984.62982,0.57166
983.66544,0.57166
982.70106,0.57186
981.73668,0.57131
980.77230,0.57051
979.80793,0.57023
978.84355,0.56991
977.87917,0.56932
976.91479,0.56918
975.95041,0.56910
974.98604,0.56865
974.02166,0.56836
973.05728,0.56797
972.09290,0.56737
971.12853,0.56719
970.16415,0.56662
969.19977,0.56565
968.23539,0.56550
967.27101,0.56567
966.30664,0.56552
965.34226,0.56504
964.37788,0.56443
963.41350,0.56409
962.44912,0.56404
961.48475,0.56387
960.52037,0.56352
959.55599,0.56346
958.59161,0.56314
957.62724,0.56245
956.66286,0.56209
955.69848,0.56211
954.73410,0.56198
953.76972,0.56138
952.80535,0.56109
951.84097,0.56136
950.87659,0.56156
949.91221,0.56162
948.94783,0.56145
947.98346,0.56107
947.01908,0.56083
946.05470,0.56079
945.09032,0.56077
944.12594,0.56085
943.16157,0.56079
942.19719,0.56023
941.23281,0.55973
940.26843,0.55989
939.30406,0.56008
938.33968,0.55990
937.37530,0.56009
936.41092,0.56037
935.44654,0.56005
934.48217,0.55982
933.51779,0.55991
932.55341,0.56001
931.58903,0.56029
930.62465,0.56072
929.66028,0.56103
928.69590,0.56117
927.73152,0.56119
926.76714,0.56128
925.80276,0.56143
924.83839,0.56116
923.87401,0.56101
922.90963,0.56112
921.94525,0.56105
920.98088,0.56118
920.01650,0.56107
919.05212,0.56121
918.08774,0.56184
917.12336,0.56179
916.15899,0.56177
915.19461,0.56204
914.23023,0.56212
913.26585,0.56219
912.30147,0.56234
911.33710,0.56251
910.37272,0.56251
909.40834,0.56288
908.44396,0.56336
907.47959,0.56315
906.51521,0.56296
905.55083,0.56321
904.58645,0.56349
903.62207,0.56398
902.65770,0.56456
901.69332,0.56450
900.72894,0.56436
899.76456,0.56444
898.80018,0.56455
897.83581,0.56495
896.87143,0.56495
895.90705,0.56461
894.94267,0.56490
893.97829,0.56534
893.01392,0.56465
892.04954,0.56388
891.08516,0.56438
890.12078,0.56501
889.15641,0.56506
888.19203,0.56471
887.22765,0.56471
886.26327,0.56466
885.29889,0.56451
884.33452,0.56498
883.37014,0.56474
882.40576,0.56451
881.44138,0.56469
880.47700,0.56430
879.51263,0.56398
878.54825,0.56364
877.58387,0.56374
876.61949,0.56412
875.65512,0.56420
874.69074,0.56394
873.72636,0.56306
872.76198,0.56260
871.79760,0.56254
870.83323,0.56209
869.86885,0.56154
868.90447,0.56151
867.94009,0.56152
866.97571,0.56101
866.01134,0.56069
865.04696,0.56059
864.08258,0.56081
863.11820,0.56115
862.15382,0.56093
861.18945,0.56080
860.22507,0.56097
859.26069,0.56106
858.29631,0.56126
857.33194,0.56137
856.36756,0.56095
855.40318,0.56025
854.43880,0.56008
853.47442,0.56081
852.51005,0.56168
851.54567,0.56202
850.58129,0.56181
849.61691,0.56144
848.65253,0.56192
847.68816,0.56227
846.72378,0.56199
845.75940,0.56223
844.79502,0.56270
843.83065,0.56310
842.86627,0.56288
841.90189,0.56224
840.93751,0.56214
839.97313,0.56207
839.00876,0.56196
838.04438,0.56176
837.08000,0.56139
836.11562,0.56135
835.15124,0.56152
834.18687,0.56157
833.22249,0.56146
832.25811,0.56095
831.29373,0.56038
830.32935,0.56064
829.36498,0.56094
828.40060,0.56092
827.43622,0.56107
826.47184,0.56045
825.50747,0.56008
824.54309,0.56060
823.57871,0.56059
822.61433,0.56042
821.64995,0.56029
820.68558,0.55997
819.72120,0.55981
818.75682,0.55998
817.79244,0.56045
816.82806,0.56035
815.86369,0.55975
814.89931,0.55927
813.93493,0.55884
812.97055,0.55903
812.00618,0.55927
811.04180,0.55912
810.07742,0.55938
809.11304,0.55937
808.14866,0.55888
807.18429,0.55848
806.21991,0.55833
805.25553,0.55817
804.29115,0.55758
803.32677,0.55738
802.36240,0.55761
801.39802,0.55761
800.43364,0.55733
799.46926,0.55658
798.50488,0.55635
797.54051,0.55663
796.57613,0.55629
795.61175,0.55616
794.64737,0.55632
793.68300,0.55624
792.71862,0.55611
791.75424,0.55615
790.78986,0.55636
789.82548,0.55601
788.86111,0.55578
787.89673,0.55602
786.93235,0.55585
785.96797,0.55563
785.00359,0.55565
784.03922,0.55611
783.07484,0.55646
782.11046,0.55620
781.14608,0.55584
780.18171,0.55534
779.21733,0.55514
778.25295,0.55515
777.28857,0.55492
776.32419,0.55521
775.35982,0.55559
774.39544,0.55511
773.43106,0.55464
772.46668,0.55507
771.50230,0.55550
770.53793,0.55535
769.57355,0.55499
768.60917,0.55503
767.64479,0.55548
766.68041,0.55521
765.71604,0.55432
764.75166,0.55416
763.78728,0.55429
762.82290,0.55408
761.85853,0.55430
760.89415,0.55449
759.92977,0.55438
758.96539,0.55420
758.00101,0.55346
757.03664,0.55322
756.07226,0.55343
755.10788,0.55316
754.14350,0.55272
753.17912,0.55268
752.21475,0.55320
751.25037,0.55296
750.28599,0.55283
749.32161,0.55329
748.35724,0.55275
747.39286,0.55185
746.42848,0.55101
745.46410,0.55108
744.49972,0.55156
743.53535,0.55096
742.57097,0.55040
741.60659,0.54993
740.64221,0.54997
739.67783,0.55064
738.71346,0.55065
737.74908,0.55010
736.78470,0.54967
735.82032,0.54993
734.85594,0.55017
733.89157,0.54989
732.92719,0.54976
731.96281,0.54965
730.99843,0.54922
730.03406,0.54880
729.06968,0.54854
728.10530,0.54829
727.14092,0.54768
726.17654,0.54704
725.21217,0.54700
724.24779,0.54687
723.28341,0.54684
722.31903,0.54717
721.35465,0.54756
720.39028,0.54791
719.42590,0.54756
718.46152,0.54770
717.49714,0.54816
716.53276,0.54815
715.56839,0.54822
714.60401,0.54763
713.63963,0.54716
712.67525,0.54734
711.71088,0.54757
710.74650,0.54762
709.78212,0.54713
708.81774,0.54667
707.85336,0.54671
706.88899,0.54707
705.92461,0.54737
704.96023,0.54759
703.99585,0.54746
703.03147,0.54696
702.06710,0.54689
701.10272,0.54668
700.13834,0.54626
699.17396,0.54620
698.20959,0.54616
697.24521,0.54609
696.28083,0.54600
695.31645,0.54621
694.35207,0.54687
693.38770,0.54752
692.42332,0.54755
691.45894,0.54723
690.49456,0.54696
689.53018,0.54631
688.56581,0.54607
687.60143,0.54640
686.63705,0.54643
685.67267,0.54635
684.70829,0.54620
683.74392,0.54582
682.77954,0.54550
681.81516,0.54560
680.85078,0.54591
679.88641,0.54606
678.92203,0.54588
677.95765,0.54566
676.99327,0.54580
676.02889,0.54597
675.06452,0.54608
674.10014,0.54585
673.13576,0.54540
672.17138,0.54545
671.20700,0.54563
670.24263,0.54533
669.27825,0.54518
668.31387,0.54597
667.34949,0.54688
666.38512,0.54667
665.42074,0.54589
664.45636,0.54544
663.49198,0.54563
662.52760,0.54592
661.56323,0.54614
660.59885,0.54625
659.63447,0.54602
658.67009,0.54562
657.70571,0.54589
656.74134,0.54637
655.77696,0.54629
654.81258,0.54613
653.84820,0.54573
652.88382,0.54550
651.91945,0.54568
650.95507,0.54619
649.99069,0.54674
649.02631,0.54653
648.06194,0.54640
647.09756,0.54644
646.13318,0.54624
645.16880,0.54597
644.20442,0.54596
643.24005,0.54646
642.27567,0.54683
641.31129,0.54734
640.34691,0.54709
639.38253,0.54636
638.41816,0.54652
637.45378,0.54629
636.48940,0.54661
635.52502,0.54750
634.56065,0.54736
633.59627,0.54674
632.63189,0.54609
631.66751,0.54598
630.70313,0.54591
629.73876,0.54559
628.77438,0.54636
627.81000,0.54780
626.84562,0.54955
625.88124,0.55131
624.91687,0.54781
623.95249,0.54233
622.98811,0.54987
622.02373,0.55686
621.05935,0.55302
620.09498,0.54904
619.13060,0.53756
618.16622,0.53597
617.20184,0.54114
616.23747,0.53571
615.27309,0.52962
614.30871,0.52518
613.34433,0.52099
612.37995,0.52147
611.41558,0.53022
610.45120,0.53981
609.48682,0.54721
608.52244,0.54330
607.55806,0.53111
606.59369,0.53596
605.62931,0.54079
604.66493,0.54326
603.70055,0.54612
602.73618,0.54004
601.77180,0.54227
600.80742,0.54580
599.84304,0.54579
598.87866,0.54879
597.91429,0.54771
596.94991,0.54496
595.98553,0.54412
595.02115,0.54401
594.05677,0.54624
593.09240,0.54891
592.12802,0.55029
591.16364,0.54994
590.19926,0.54752
589.23488,0.54591
588.27051,0.54567
587.30613,0.54560
586.34175,0.54608
585.37737,0.54636
584.41300,0.54628
583.44862,0.54569
582.48424,0.54535
581.51986,0.54629
580.55548,0.54698
579.59111,0.54715
578.62673,0.54609
577.66235,0.54477
576.69797,0.54534
575.73359,0.54598
574.76922,0.54526
573.80484,0.54393
572.84046,0.54410
571.87608,0.54467
570.91171,0.54451
569.94733,0.54536
568.98295,0.54509
568.01857,0.54428
567.05419,0.54471
566.08982,0.54506
565.12544,0.54475
564.16106,0.54336
563.19668,0.54339
562.23230,0.54470
561.26793,0.54469
560.30355,0.54420
559.33917,0.54408
558.37479,0.54406
557.41041,0.54346
556.44604,0.54242
555.48166,0.54257
554.51728,0.54369
553.55290,0.54355
552.58853,0.54276
551.62415,0.54192
550.65977,0.54075
549.69539,0.54113
548.73101,0.54251
547.76664,0.54300
546.80226,0.54270
545.83788,0.54217
544.87350,0.54189
543.90912,0.54167
542.94475,0.54132
541.98037,0.54178
541.01599,0.54250
540.05161,0.54176
539.08724,0.54112
538.12286,0.54080
537.15848,0.53987
536.19410,0.54007
535.22972,0.54042
534.26535,0.54033
533.30097,0.54137
532.33659,0.54194
531.37221,0.54124
530.40783,0.54139
529.44346,0.54123
528.47908,0.53949
527.51470,0.53927
526.55032,0.54106
525.58594,0.54199
524.62157,0.54062
523.65719,0.53924
522.69281,0.53959
521.72843,0.54095
520.76406,0.54218
519.79968,0.54051
518.83530,0.53871
517.87092,0.53899
516.90654,0.53870
515.94217,0.53940
514.97779,0.54024
514.01341,0.53946
513.04903,0.53879
512.08465,0.53894
511.12028,0.53978
510.15590,0.54075
509.19152,0.54066
508.22714,0.53957
507.26276,0.53986
506.29839,0.53960
505.33401,0.53847
504.36963,0.53889
503.40525,0.53832
502.44088,0.53780
501.47650,0.53859
500.51212,0.53866
499.54774,0.53788
498.58336,0.53822
497.61899,0.53944
496.65461,0.53842
495.69023,0.53845
494.72585,0.53936
493.76147,0.53783
492.79710,0.53751
491.83272,0.53721
490.86834,0.53649
489.90396,0.53768
488.93959,0.53817
487.97521,0.53825
487.01083,0.53934
486.04645,0.53982
485.08207,0.53930
484.11770,0.53888
483.15332,0.53839
482.18894,0.53773
481.22456,0.53684
480.26018,0.53578
479.29581,0.53627
478.33143,0.53701
477.36705,0.53726
476.40267,0.53774
475.43829,0.53696
474.47392,0.53608
473.50954,0.53539
472.54516,0.53522
471.58078,0.53639
470.61641,0.53726
469.65203,0.53783
468.68765,0.53709
467.72327,0.53632
466.75889,0.53667
465.79452,0.53623
464.83014,0.53635
463.86576,0.53645
462.90138,0.53568
461.93700,0.53532
460.97263,0.53513
460.00825,0.53501
459.04387,0.53590
458.07949,0.53743
457.11512,0.53690
456.15074,0.53579
455.18636,0.53583
454.22198,0.53546
453.25760,0.53463
452.29323,0.53371
451.32885,0.53349
450.36447,0.53400
449.40009,0.53443
448.43571,0.53445
447.47134,0.53373
446.50696,0.53294
445.54258,0.53297
444.57820,0.53344
443.61382,0.53341
442.64945,0.53287
441.68507,0.53232
440.72069,0.53262
439.75631,0.53304
438.79194,0.53293
437.82756,0.53275
436.86318,0.53219
435.89880,0.53232
434.93442,0.53211
433.97005,0.53186
433.00567,0.53229
432.04129,0.53132
431.07691,0.53116
430.11253,0.53154
429.14816,0.53149
428.18378,0.53205
427.21940,0.53111
426.25502,0.52996
425.29065,0.52985
424.32627,0.52963
423.36189,0.52924
422.39751,0.52910
421.43313,0.52919
420.46876,0.52860
419.50438,0.52814
418.54000,0.52838
417.57562,0.52898
416.61124,0.52986
415.64687,0.52966
414.68249,0.52812
413.71811,0.52697
412.75373,0.52717
411.78935,0.52750
410.82498,0.52709
409.86060,0.52663
408.89622,0.52650
407.93184,0.52674
406.96747,0.52722
406.00309,0.52698
405.03871,0.52568
404.07433,0.52465
403.10995,0.52437
402.14558,0.52458
401.18120,0.52511
400.21682,0.52514
399.25244,0.52470
