1900.76660,0.00157
1899.80223,0.00150
1898.83787,0.00142
1897.87350,0.00135
1896.90913,0.00128
1895.94477,0.00121
1894.98040,0.00114
1894.01603,0.00106
1893.05167,0.00099
1892.08730,0.00092
1891.12293,0.00084
1890.15857,0.00077
1889.19420,0.00070
1888.22983,0.00063
1887.26547,0.00055
1886.30110,0.00048
1885.33673,0.00041
1884.37237,0.00034
1883.40800,0.00026
1882.44364,0.00019
1881.47927,0.00012
1880.51490,0.00017
1879.55054,0.00027
1878.58617,0.00037
1877.62180,0.00035
1876.65744,0.00022
1875.69307,0.00019
1874.72870,0.00035
1873.76434,0.00051
1872.79997,0.00051
1871.83560,0.00035
1870.87124,0.00013
1869.90687,0.00000
1868.94250,0.00000
1867.97814,0.00005
1867.01377,0.00005
1866.04940,0.00003
1865.08504,0.00004
1864.12067,0.00011
1863.15630,0.00012
1862.19194,0.00007
1861.22757,0.00005
1860.26320,0.00008
1859.29884,0.00010
1858.33447,0.00008
1857.37010,0.00008
1856.40574,0.00016
1855.44137,0.00029
1854.47700,0.00036
1853.51264,0.00030
1852.54827,0.00030
1851.58390,0.00050
1850.61954,0.00068
1849.65517,0.00057
1848.69080,0.00030
1847.72644,0.00016
1846.76207,0.00023
1845.79770,0.00028
1844.83334,0.00018
1843.86897,0.00017
1842.90460,0.00046
1841.94024,0.00082
1840.97587,0.00098
1840.01150,0.00108
1839.04714,0.00129
1838.08277,0.00152
1837.11840,0.00166
1836.15404,0.00175
1835.18967,0.00182
1834.22530,0.00184
1833.26094,0.00193
1832.29657,0.00232
1831.33220,0.00284
1830.36784,0.00314
1829.40347,0.00312
1828.43910,0.00310
1827.47474,0.00330
1826.51037,0.00358
1825.54600,0.00372
1824.58164,0.00376
1823.61727,0.00392
1822.65290,0.00416
1821.68854,0.00437
1820.72417,0.00447
1819.75981,0.00454
1818.79544,0.00460
1817.83107,0.00463
1816.86671,0.00464
1815.90234,0.00472
1814.93797,0.00491
1813.97361,0.00510
1813.00924,0.00518
1812.04487,0.00514
1811.08051,0.00505
1810.11614,0.00504
1809.15177,0.00512
1808.18741,0.00518
1807.22304,0.00515
1806.25867,0.00514
1805.29431,0.00520
1804.32994,0.00531
1803.36557,0.00541
1802.40121,0.00546
1801.43684,0.00543
1800.47247,0.00529
1799.50811,0.00517
1798.54374,0.00526
1797.57937,0.00551
1796.61501,0.00561
1795.65064,0.00557
1794.68627,0.00568
1793.72191,0.00586
1792.75754,0.00577
1791.79317,0.00554
1790.82881,0.00565
1789.86444,0.00609
1788.90007,0.00655
1787.93571,0.00692
1786.97134,0.00725
1786.00697,0.00752
1785.04261,0.00768
1784.07824,0.00792
1783.11387,0.00836
1782.14951,0.00884
1781.18514,0.00916
1780.22077,0.00942
1779.25641,0.00987
1778.29204,0.01052
1777.32767,0.01115
1776.36331,0.01161
1775.39894,0.01214
1774.43457,0.01297
1773.47021,0.01370
1772.50584,0.01387
1771.54147,0.01394
1770.57711,0.01474
1769.61274,0.01599
1768.64837,0.01691
1767.68401,0.01748
1766.71964,0.01828
1765.75527,0.01932
1764.79091,0.02039
1763.82654,0.02142
1762.86217,0.02224
1761.89781,0.02272
1760.93344,0.02329
1759.96907,0.02437
1759.00471,0.02573
1758.04034,0.02679
1757.07597,0.02747
1756.11161,0.02807
1755.14724,0.02893
1754.18288,0.03017
1753.21851,0.03151
1752.25414,0.03246
1751.28978,0.03288
1750.32541,0.03344
1749.36104,0.03440
1748.39668,0.03530
1747.43231,0.03597
1746.46794,0.03681
1745.50358,0.03796
1744.53921,0.03893
1743.57484,0.03946
1742.61048,0.04004
1741.64611,0.04098
1740.68174,0.04168
1739.71738,0.04169
1738.75301,0.04178
1737.78864,0.04259
1736.82428,0.04413
1735.85991,0.04538
1734.89554,0.04530
1733.93118,0.04390
1732.96681,0.04322
1732.00244,0.04401
1731.03808,0.04502
1730.07371,0.04511
1729.10934,0.04491
1728.14498,0.04501
1727.18061,0.04516
1726.21624,0.04515
1725.25188,0.04504
1724.28751,0.04485
1723.32314,0.04453
1722.35878,0.04420
1721.39441,0.04410
1720.43004,0.04442
1719.46568,0.04448
1718.50131,0.04346
1717.53694,0.04180
1716.57258,0.04100
1715.60821,0.04089
1714.64384,0.04054
1713.67948,0.03991
1712.71511,0.03968
1711.75074,0.03953
1710.78638,0.03902
1709.82201,0.03836
1708.85764,0.03795
1707.89328,0.03762
1706.92891,0.03693
1705.96454,0.03587
1705.00018,0.03476
1704.03581,0.03387
1703.07144,0.03409
1702.10708,0.03462
1701.14271,0.03372
1700.17834,0.03079
1699.21398,0.02897
1698.24961,0.02958
1697.28524,0.03055
1696.32088,0.02966
1695.35651,0.02783
1694.39214,0.02714
1693.42778,0.02743
1692.46341,0.02767
1691.49905,0.02729
1690.53468,0.02669
1689.57031,0.02601
1688.60595,0.02536
1687.64158,0.02515
1686.67721,0.02561
1685.71285,0.02569
1684.74848,0.02435
1683.78411,0.02245
1682.81975,0.02200
1681.85538,0.02277
1680.89101,0.02332
1679.92665,0.02313
1678.96228,0.02305
1677.99791,0.02350
1677.03355,0.02404
1676.06918,0.02389
1675.10481,0.02312
1674.14045,0.02294
1673.17608,0.02356
1672.21171,0.02426
1671.24735,0.02453
1670.28298,0.02456
1669.31861,0.02443
1668.35425,0.02453
1667.38988,0.02527
1666.42551,0.02628
1665.46115,0.02719
1664.49678,0.02786
1663.53241,0.02825
1662.56805,0.02838
1661.60368,0.02885
1660.63931,0.02985
1659.67495,0.03093
1658.71058,0.03175
1657.74621,0.03246
1656.78185,0.03341
1655.81748,0.03504
1654.85311,0.03635
1653.88875,0.03612
1652.92438,0.03467
1651.96001,0.03484
1650.99565,0.03712
1650.03128,0.03995
1649.06691,0.04175
1648.10255,0.04277
1647.13818,0.04334
1646.17381,0.04391
1645.20945,0.04500
1644.24508,0.04674
1643.28071,0.04863
1642.31635,0.05017
1641.35198,0.05149
1640.38761,0.05293
1639.42325,0.05454
1638.45888,0.05633
1637.49451,0.05814
1636.53015,0.05932
1635.56578,0.05959
1634.60141,0.05999
1633.63705,0.06180
1632.67268,0.06427
1631.70831,0.06624
1630.74395,0.06769
1629.77958,0.06923
1628.81522,0.07059
1627.85085,0.07144
1626.88648,0.07234
1625.92212,0.07393
1624.95775,0.07545
1623.99338,0.07586
1623.02902,0.07544
1622.06465,0.07571
1621.10028,0.07664
1620.13592,0.07748
1619.17155,0.07840
1618.20718,0.07893
1617.24282,0.07811
1616.27845,0.07607
1615.31408,0.07521
1614.34972,0.07563
1613.38535,0.07600
1612.42098,0.07558
1611.45662,0.07495
1610.49225,0.07425
1609.52788,0.07339
1608.56352,0.07261
1607.59915,0.07195
1606.63478,0.07131
1605.67042,0.07074
1604.70605,0.07021
1603.74168,0.06962
1602.77732,0.06889
1601.81295,0.06823
1600.84858,0.06776
1599.88422,0.06746
1598.91985,0.06725
1597.95548,0.06699
1596.99112,0.06664
1596.02675,0.06623
1595.06238,0.06589
1594.09802,0.06563
1593.13365,0.06553
1592.16928,0.06550
1591.20492,0.06543
1590.24055,0.06531
1589.27618,0.06514
1588.31182,0.06499
1587.34745,0.06484
1586.38308,0.06472
1585.41872,0.06457
1584.45435,0.06435
1583.48998,0.06406
1582.52562,0.06367
1581.56125,0.06330
1580.59688,0.06289
1579.63252,0.06256
1578.66815,0.06266
1577.70378,0.06252
1576.73942,0.06122
1575.77505,0.05907
1574.81068,0.05808
1573.84632,0.05814
1572.88195,0.05825
1571.91758,0.05799
1570.95322,0.05733
1569.98885,0.05572
1569.02448,0.05361
1568.06012,0.05252
1567.09575,0.05228
1566.13139,0.05175
1565.16702,0.05036
1564.20265,0.04883
1563.23829,0.04784
1562.27392,0.04763
1561.30955,0.04740
1560.34519,0.04592
1559.38082,0.04279
1558.41645,0.03961
1557.45209,0.03810
1556.48772,0.03848
1555.52335,0.03868
1554.55899,0.03748
1553.59462,0.03554
1552.63025,0.03449
1551.66589,0.03397
1550.70152,0.03293
1549.73715,0.03123
1548.77279,0.02984
1547.80842,0.02918
1546.84405,0.02857
1545.87969,0.02736
1544.91532,0.02579
1543.95095,0.02457
1542.98659,0.02360
1542.02222,0.02256
1541.05785,0.02131
1540.09349,0.01964
1539.12912,0.01781
1538.16475,0.01683
1537.20039,0.01686
1536.23602,0.01705
1535.27165,0.01653
1534.30729,0.01533
1533.34292,0.01378
1532.37855,0.01272
1531.41419,0.01226
1530.44982,0.01207
1529.48545,0.01164
1528.52109,0.01088
1527.55672,0.00993
1526.59235,0.00895
1525.62799,0.00812
1524.66362,0.00762
1523.69925,0.00744
1522.73489,0.00700
1521.77052,0.00591
1520.80615,0.00481
1519.84179,0.00450
1518.87742,0.00474
1517.91305,0.00456
1516.94869,0.00378
1515.98432,0.00326
1515.01995,0.00338
1514.05559,0.00370
1513.09122,0.00365
1512.12685,0.00335
1511.16249,0.00312
1510.19812,0.00305
1509.23375,0.00306
1508.26939,0.00281
1507.30502,0.00211
1506.34065,0.00128
1505.37629,0.00129
1504.41192,0.00219
1503.44756,0.00319
1502.48319,0.00366
1501.51882,0.00389
1500.55446,0.00408
1499.59009,0.00415
1498.62572,0.00418
1497.66136,0.00428
1496.69699,0.00434
1495.73262,0.00441
1494.76826,0.00489
1493.80389,0.00571
1492.83952,0.00646
1491.87516,0.00676
1490.91079,0.00662
1489.94642,0.00648
1488.98206,0.00682
1488.01769,0.00748
1487.05332,0.00801
1486.08896,0.00847
1485.12459,0.00911
1484.16022,0.00979
1483.19586,0.01035
1482.23149,0.01077
1481.26712,0.01113
1480.30276,0.01156
1479.33839,0.01221
1478.37402,0.01300
1477.40966,0.01352
1476.44529,0.01376
1475.48092,0.01422
1474.51656,0.01504
1473.55219,0.01556
1472.58782,0.01560
1471.62346,0.01594
1470.65909,0.01707
1469.69472,0.01847
1468.73036,0.01954
1467.76599,0.02043
1466.80162,0.02137
1465.83726,0.02209
1464.87289,0.02252
1463.90852,0.02311
1462.94416,0.02420
1461.97979,0.02546
1461.01542,0.02659
1460.05106,0.02765
1459.08669,0.02861
1458.12232,0.02927
1457.15796,0.02956
1456.19359,0.03005
1455.22922,0.03121
1454.26486,0.03291
1453.30049,0.03450
1452.33612,0.03571
1451.37176,0.03685
1450.40739,0.03814
1449.44302,0.03941
1448.47866,0.04034
1447.51429,0.04116
1446.54992,0.04229
1445.58556,0.04370
1444.62119,0.04504
1443.65682,0.04621
1442.69246,0.04738
1441.72809,0.04855
1440.76373,0.04967
1439.79936,0.05096
1438.83499,0.05255
1437.87063,0.05377
1436.90626,0.05405
1435.94189,0.05425
1434.97753,0.05546
1434.01316,0.05720
1433.04879,0.05864
1432.08443,0.05984
1431.12006,0.06095
1430.15569,0.06173
1429.19133,0.06244
1428.22696,0.06343
1427.26259,0.06466
1426.29823,0.06592
1425.33386,0.06699
1424.36949,0.06763
1423.40513,0.06799
1422.44076,0.06897
1421.47639,0.07065
1420.51203,0.07185
1419.54766,0.07179
1418.58329,0.07146
1417.61893,0.07214
1416.65456,0.07338
1415.69019,0.07445
1414.72583,0.07520
1413.76146,0.07597
1412.79709,0.07667
1411.83273,0.07726
1410.86836,0.07781
1409.90399,0.07836
1408.93963,0.07894
1407.97526,0.07959
1407.01089,0.08030
1406.04653,0.08080
1405.08216,0.08096
1404.11779,0.08115
1403.15343,0.08171
1402.18906,0.08255
1401.22469,0.08342
1400.26033,0.08396
1399.29596,0.08393
1398.33159,0.08381
1397.36723,0.08436
1396.40286,0.08516
1395.43849,0.08535
1394.47413,0.08500
1393.50976,0.08516
1392.54539,0.08602
1391.58103,0.08690
1390.61666,0.08751
1389.65229,0.08812
1388.68793,0.08856
1387.72356,0.08843
1386.75919,0.08809
1385.79483,0.08829
1384.83046,0.08892
1383.86609,0.08943
1382.90173,0.08968
1381.93736,0.08989
1380.97299,0.09012
1380.00863,0.09034
1379.04426,0.09050
1378.07989,0.09066
1377.11553,0.09096
1376.15116,0.09135
1375.18680,0.09143
1374.22243,0.09111
1373.25806,0.09085
1372.29370,0.09104
1371.32933,0.09149
1370.36496,0.09180
1369.40060,0.09184
1368.43623,0.09171
1367.47186,0.09159
1366.50750,0.09162
1365.54313,0.09181
1364.57876,0.09193
1363.61440,0.09166
1362.65003,0.09108
1361.68566,0.09069
1360.72130,0.09064
1359.75693,0.09073
1358.79256,0.09071
1357.82820,0.09057
1356.86383,0.09033
1355.89946,0.09002
1354.93510,0.08963
1353.97073,0.08924
1353.00636,0.08894
1352.04200,0.08871
1351.07763,0.08848
1350.11326,0.08812
1349.14890,0.08765
1348.18453,0.08719
1347.22016,0.08682
1346.25580,0.08650
1345.29143,0.08615
1344.32706,0.08577
1343.36270,0.08540
1342.39833,0.08505
1341.43396,0.08457
1340.46960,0.08385
1339.50523,0.08305
1338.54086,0.08248
1337.57650,0.08213
1336.61213,0.08178
1335.64776,0.08137
1334.68340,0.08095
1333.71903,0.08047
1332.75466,0.07992
1331.79030,0.07937
1330.82593,0.07888
1329.86156,0.07842
1328.89720,0.07795
1327.93283,0.07745
1326.96846,0.07695
1326.00410,0.07648
1325.03973,0.07604
1324.07536,0.07559
1323.11100,0.07513
1322.14663,0.07467
1321.18226,0.07423
1320.21790,0.07379
1319.25353,0.07332
1318.28916,0.07286
1317.32480,0.07244
1316.36043,0.07210
1315.39606,0.07182
1314.43170,0.07152
1313.46733,0.07114
1312.50297,0.07077
1311.53860,0.07049
1310.57423,0.07030
1309.60987,0.07007
1308.64550,0.06980
1307.68113,0.06956
1306.71677,0.06937
1305.75240,0.06918
1304.78803,0.06895
1303.82367,0.06873
1302.85930,0.06856
1301.89493,0.06842
1300.93057,0.06830
1299.96620,0.06820
1299.00183,0.06815
1298.03747,0.06813
1297.07310,0.06808
1296.10873,0.06803
1295.14437,0.06805
1294.18000,0.06809
1293.21563,0.06810
1292.25127,0.06810
1291.28690,0.06817
1290.32253,0.06829
1289.35817,0.06839
1288.39380,0.06846
1287.42943,0.06855
1286.46507,0.06871
1285.50070,0.06892
1284.53633,0.06913
1283.57197,0.06929
1282.60760,0.06942
1281.64323,0.06954
1280.67887,0.06970
1279.71450,0.06992
1278.75013,0.07017
1277.78577,0.07041
1276.82140,0.07063
1275.85703,0.07085
1274.89267,0.07110
1273.92830,0.07136
1272.96393,0.07161
1271.99957,0.07185
1271.03520,0.07207
1270.07083,0.07233
1269.10647,0.07261
1268.14210,0.07288
1267.17773,0.07315
1266.21337,0.07346
1265.24900,0.07382
1264.28463,0.07419
1263.32027,0.07456
1262.35590,0.07490
1261.39153,0.07519
1260.42717,0.07544
1259.46280,0.07571
1258.49843,0.07610
1257.53407,0.07656
1256.56970,0.07699
1255.60533,0.07737
1254.64097,0.07774
1253.67660,0.07809
1252.71223,0.07842
1251.74787,0.07875
1250.78350,0.07909
1249.81914,0.07942
1248.85477,0.07975
1247.89040,0.08014
1246.92604,0.08054
1245.96167,0.08089
1244.99730,0.08119
1244.03294,0.08149
1243.06857,0.08177
1242.10420,0.08203
1241.13984,0.08230
1240.17547,0.08265
1239.21110,0.08302
1238.24674,0.08332
1237.28237,0.08355
1236.31800,0.08376
1235.35364,0.08397
1234.38927,0.08416
1233.42490,0.08433
1232.46054,0.08448
1231.49617,0.08461
1230.53180,0.08473
1229.56744,0.08483
1228.60307,0.08489
1227.63870,0.08493
1226.67434,0.08499
1225.70997,0.08500
1224.74560,0.08493
1223.78124,0.08483
1222.81687,0.08474
1221.85250,0.08463
1220.88814,0.08446
1219.92377,0.08421
1218.95940,0.08387
1217.99504,0.08354
1217.03067,0.08327
1216.06630,0.08302
1215.10194,0.08270
1214.13757,0.08231
1213.17320,0.08189
1212.20884,0.08151
1211.24447,0.08119
1210.28010,0.08090
1209.31574,0.08061
1208.35137,0.08030
1207.38700,0.07996
1206.42264,0.07959
1205.45827,0.07923
1204.49390,0.07896
1203.52954,0.07880
1202.56517,0.07863
1201.60080,0.07835
1200.63644,0.07803
1199.67207,0.07776
1198.70770,0.07756
1197.74334,0.07736
1196.77897,0.07714
1195.81460,0.07694
1194.85024,0.07679
1193.88587,0.07665
1192.92150,0.07646
1191.95714,0.07627
1190.99277,0.07618
1190.02840,0.07616
1189.06404,0.07611
1188.09967,0.07597
1187.13531,0.07582
1186.17094,0.07570
1185.20657,0.07561
1184.24221,0.07556
1183.27784,0.07553
1182.31347,0.07555
1181.34911,0.07561
1180.38474,0.07564
1179.42037,0.07561
1178.45601,0.07554
1177.49164,0.07549
1176.52727,0.07549
1175.56291,0.07552
1174.59854,0.07557
1173.63417,0.07560
1172.66981,0.07561
1171.70544,0.07561
1170.74107,0.07563
1169.77671,0.07568
1168.81234,0.07577
1167.84797,0.07585
1166.88361,0.07590
1165.91924,0.07598
1164.95487,0.07612
1163.99051,0.07628
1163.02614,0.07641
1162.06177,0.07651
1161.09741,0.07660
1160.13304,0.07667
1159.16867,0.07675
1158.20431,0.07693
1157.23994,0.07719
1156.27557,0.07744
1155.31121,0.07761
1154.34684,0.07785
1153.38247,0.07826
1152.41811,0.07873
1151.45374,0.07911
1150.48937,0.07938
1149.52501,0.07966
1148.56064,0.07999
1147.59627,0.08033
1146.63191,0.08066
1145.66754,0.08096
1144.70317,0.08131
1143.73881,0.08175
1142.77444,0.08219
1141.81007,0.08260
1140.84571,0.08299
1139.88134,0.08344
1138.91697,0.08397
1137.95261,0.08458
1136.98824,0.08514
1136.02387,0.08563
1135.05951,0.08616
1134.09514,0.08679
1133.13077,0.08746
1132.16641,0.08812
1131.20204,0.08875
1130.23767,0.08932
1129.27331,0.08986
1128.30894,0.09046
1127.34457,0.09114
1126.38021,0.09186
1125.41584,0.09256
1124.45148,0.09320
1123.48711,0.09386
1122.52274,0.09466
1121.55838,0.09558
1120.59401,0.09647
1119.62964,0.09731
1118.66528,0.09812
1117.70091,0.09887
1116.73654,0.09960
1115.77218,0.10036
1114.80781,0.10114
1113.84344,0.10196
1112.87908,0.10294
1111.91471,0.10403
1110.95034,0.10508
1109.98598,0.10597
1109.02161,0.10679
1108.05724,0.10767
1107.09288,0.10867
1106.12851,0.10973
1105.16414,0.11082
1104.19978,0.11187
1103.23541,0.11286
1102.27104,0.11387
1101.30668,0.11498
1100.34231,0.11619
1099.37794,0.11735
1098.41358,0.11847
1097.44921,0.11965
1096.48484,0.12090
1095.52048,0.12212
1094.55611,0.12327
1093.59174,0.12443
1092.62738,0.12568
1091.66301,0.12699
1090.69864,0.12824
1089.73428,0.12932
1088.76991,0.13033
1087.80554,0.13148
1086.84118,0.13282
1085.87681,0.13414
1084.91244,0.13532
1083.94808,0.13649
1082.98371,0.13773
1082.01934,0.13896
1081.05498,0.14007
1080.09061,0.14116
1079.12624,0.14229
1078.16188,0.14347
1077.19751,0.14467
1076.23314,0.14578
1075.26878,0.14669
1074.30441,0.14747
1073.34004,0.14826
1072.37568,0.14906
1071.41131,0.14990
1070.44694,0.15077
1069.48258,0.15154
1068.51821,0.15206
1067.55384,0.15243
1066.58948,0.15285
1065.62511,0.15330
1064.66074,0.15374
1063.69638,0.15421
1062.73201,0.15464
1061.76765,0.15488
1060.80328,0.15490
1059.83891,0.15480
1058.87455,0.15459
1057.91018,0.15429
1056.94581,0.15395
1055.98145,0.15360
1055.01708,0.15319
1054.05271,0.15269
1053.08835,0.15222
1052.12398,0.15171
1051.15961,0.15098
1050.19525,0.14997
1049.23088,0.14890
1048.26651,0.14789
1047.30215,0.14686
1046.33778,0.14581
1045.37341,0.14470
1044.40905,0.14347
1043.44468,0.14211
1042.48031,0.14074
1041.51595,0.13941
1040.55158,0.13802
1039.58721,0.13653
1038.62285,0.13499
1037.65848,0.13353
1036.69411,0.13213
1035.72975,0.13063
1034.76538,0.12899
1033.80101,0.12729
1032.83665,0.12564
1031.87228,0.12400
1030.90791,0.12228
1029.94355,0.12046
1028.97918,0.11859
1028.01481,0.11681
1027.05045,0.11515
1026.08608,0.11352
1025.12171,0.11185
1024.15735,0.11016
1023.19298,0.10854
1022.22861,0.10700
1021.26425,0.10545
1020.29988,0.10383
1019.33551,0.10223
1018.37115,0.10077
1017.40678,0.09942
1016.44241,0.09810
1015.47805,0.09684
1014.51368,0.09571
1013.54931,0.09467
1012.58495,0.09370
1011.62058,0.09280
1010.65621,0.09193
1009.69185,0.09110
1008.72748,0.09039
1007.76311,0.08979
1006.79875,0.08921
1005.83438,0.08868
1004.87001,0.08825
1003.90565,0.08794
1002.94128,0.08771
1001.97691,0.08748
1001.01255,0.08725
1000.04818,0.08706
999.08382,0.08692
998.11945,0.08685
997.15508,0.08683
996.19072,0.08684
995.22635,0.08684
994.26198,0.08679
993.29762,0.08669
992.33325,0.08659
991.36888,0.08652
990.40452,0.08641
989.44015,0.08626
988.47578,0.08610
987.51142,0.08594
986.54705,0.08573
985.58268,0.08548
984.61832,0.08527
983.65395,0.08504
982.68958,0.08467
981.72522,0.08417
980.76085,0.08366
979.79648,0.08324
978.83212,0.08283
977.86775,0.08232
976.90338,0.08171
975.93902,0.08104
974.97465,0.08032
974.01028,0.07958
973.04592,0.07886
972.08155,0.07818
971.11718,0.07748
970.15282,0.07671
969.18845,0.07589
968.22408,0.07503
967.25972,0.07415
966.29535,0.07321
965.33098,0.07223
964.36662,0.07126
963.40225,0.07034
962.43788,0.06946
961.47352,0.06859
960.50915,0.06772
959.54478,0.06681
958.58042,0.06581
957.61605,0.06476
956.65168,0.06372
955.68732,0.06274
954.72295,0.06182
953.75858,0.06095
952.79422,0.06002
951.82985,0.05896
950.86548,0.05786
949.90112,0.05684
948.93675,0.05593
947.97238,0.05504
947.00802,0.05413
946.04365,0.05320
945.07928,0.05223
944.11492,0.05126
943.15055,0.05035
942.18618,0.04954
941.22182,0.04876
940.25745,0.04788
939.29308,0.04690
938.32872,0.04592
937.36435,0.04498
936.39998,0.04406
935.43562,0.04313
934.47125,0.04222
933.50689,0.04134
932.54252,0.04041
931.57815,0.03941
930.61379,0.03849
929.64942,0.03771
928.68505,0.03696
927.72069,0.03614
926.75632,0.03523
925.79195,0.03429
924.82759,0.03336
923.86322,0.03245
922.89885,0.03149
921.93449,0.03049
920.97012,0.02955
920.00575,0.02878
919.04139,0.02811
918.07702,0.02738
917.11265,0.02648
916.14829,0.02551
915.18392,0.02460
914.21955,0.02383
913.25519,0.02312
912.29082,0.02240
911.32645,0.02165
910.36209,0.02089
909.39772,0.02018
908.43335,0.01956
907.46899,0.01902
906.50462,0.01842
905.54025,0.01773
904.57589,0.01706
903.61152,0.01644
902.64715,0.01579
901.68279,0.01516
900.71842,0.01467
899.75405,0.01421
898.78969,0.01362
897.82532,0.01298
896.86095,0.01247
895.89659,0.01210
894.93222,0.01175
893.96785,0.01136
893.00349,0.01096
892.03912,0.01059
891.07475,0.01024
890.11039,0.00986
889.14602,0.00948
888.18165,0.00921
887.21729,0.00907
886.25292,0.00892
885.28855,0.00869
884.32419,0.00843
883.35982,0.00813
882.39545,0.00782
881.43109,0.00758
880.46672,0.00742
879.50235,0.00728
878.53799,0.00712
877.57362,0.00697
876.60925,0.00682
875.64489,0.00662
874.68052,0.00635
873.71615,0.00604
872.75179,0.00578
871.78742,0.00562
870.82306,0.00555
869.85869,0.00554
868.89432,0.00550
867.92996,0.00547
866.96559,0.00550
866.00122,0.00556
865.03686,0.00560
864.07249,0.00560
863.10812,0.00562
862.14376,0.00569
861.17939,0.00569
860.21502,0.00553
859.25066,0.00538
858.28629,0.00540
857.32192,0.00550
856.35756,0.00552
855.39319,0.00550
854.42882,0.00554
853.46446,0.00560
852.50009,0.00562
851.53572,0.00564
850.57136,0.00575
849.60699,0.00589
848.64262,0.00599
847.67826,0.00597
846.71389,0.00588
845.74952,0.00587
844.78516,0.00596
843.82079,0.00600
842.85642,0.00594
841.89206,0.00589
840.92769,0.00590
839.96332,0.00582
838.99896,0.00567
838.03459,0.00558
837.07022,0.00562
836.10586,0.00563
835.14149,0.00552
834.17712,0.00539
833.21276,0.00533
832.24839,0.00531
831.28402,0.00529
830.31966,0.00520
829.35529,0.00502
828.39092,0.00482
827.42656,0.00469
826.46219,0.00464
825.49782,0.00455
824.53346,0.00441
823.56909,0.00427
822.60472,0.00408
821.64036,0.00383
820.67599,0.00361
819.71162,0.00346
818.74726,0.00335
817.78289,0.00323
816.81852,0.00310
815.85416,0.00296
814.88979,0.00276
813.92542,0.00242
812.96106,0.00206
811.99669,0.00186
811.03232,0.00183
810.06796,0.00181
809.10359,0.00169
808.13923,0.00153
807.17486,0.00146
806.21049,0.00155
805.24613,0.00170
804.28176,0.00167
803.31739,0.00149
802.35303,0.00137
801.38866,0.00145
800.42429,0.00157
799.45993,0.00157
798.49556,0.00149
797.53119,0.00138
796.56683,0.00125
795.60246,0.00111
794.63809,0.00094
793.67373,0.00077
792.70936,0.00067
791.74499,0.00064
790.78063,0.00059
789.81626,0.00049
788.85189,0.00042
787.88753,0.00043
786.92316,0.00045
785.95879,0.00034
784.99443,0.00014
784.03006,0.00009
783.06569,0.00022
782.10133,0.00031
781.13696,0.00022
780.17259,0.00009
779.20823,0.00004
778.24386,0.00010
777.27949,0.00023
776.31513,0.00028
775.35076,0.00019
774.38639,0.00006
773.42203,0.00002
772.45766,0.00011
771.49329,0.00029
770.52893,0.00040
769.56456,0.00035
768.60019,0.00030
767.63583,0.00038
766.67146,0.00045
765.70709,0.00033
764.74273,0.00015
763.77836,0.00014
762.81399,0.00029
761.84963,0.00044
760.88526,0.00051
759.92089,0.00058
758.95653,0.00076
757.99216,0.00104
757.02779,0.00130
756.06343,0.00133
755.09906,0.00116
754.13469,0.00100
753.17033,0.00097
752.20596,0.00099
751.24159,0.00096
750.27723,0.00089
749.31286,0.00082
748.34849,0.00092
747.38413,0.00126
746.41976,0.00166
745.45540,0.00183
744.49103,0.00177
743.52666,0.00170
742.56230,0.00176
741.59793,0.00194
740.63356,0.00219
739.66920,0.00247
738.70483,0.00274
737.74046,0.00304
736.77610,0.00332
735.81173,0.00355
734.84736,0.00376
733.88300,0.00398
732.91863,0.00419
731.95426,0.00433
730.98990,0.00441
730.02553,0.00450
729.06116,0.00454
728.09680,0.00450
727.13243,0.00445
726.16806,0.00452
725.20370,0.00464
724.23933,0.00475
723.27496,0.00486
722.31060,0.00498
721.34623,0.00516
720.38186,0.00536
719.41750,0.00549
718.45313,0.00555
717.48876,0.00565
716.52440,0.00585
715.56003,0.00614
714.59566,0.00642
713.63130,0.00662
712.66693,0.00679
711.70256,0.00699
710.73820,0.00718
709.77383,0.00734
708.80946,0.00751
707.84510,0.00768
706.88073,0.00781
705.91636,0.00795
704.95200,0.00814
703.98763,0.00838
703.02326,0.00864
702.05890,0.00887
701.09453,0.00904
700.13016,0.00912
699.16580,0.00918
698.20143,0.00935
697.23706,0.00964
696.27270,0.00992
695.30833,0.01014
694.34396,0.01038
693.37960,0.01068
692.41523,0.01092
691.45086,0.01095
690.48650,0.01079
689.52213,0.01063
688.55776,0.01062
687.59340,0.01069
686.62903,0.01073
685.66466,0.01076
684.70030,0.01084
683.73593,0.01099
682.77157,0.01122
681.80720,0.01152
680.84283,0.01179
679.87847,0.01196
678.91410,0.01199
677.94973,0.01199
676.98537,0.01211
676.02100,0.01235
675.05663,0.01256
674.09227,0.01266
673.12790,0.01279
672.16353,0.01297
671.19917,0.01309
670.23480,0.01262
669.27043,0.01177
668.30607,0.01148
667.34170,0.01256
666.37733,0.01400
665.41297,0.01484
664.44860,0.01498
663.48423,0.01499
662.51987,0.01506
661.55550,0.01524
660.59113,0.01547
659.62677,0.01562
658.66240,0.01569
657.69803,0.01571
656.73367,0.01578
655.76930,0.01598
654.80493,0.01626
653.84057,0.01648
652.87620,0.01667
651.91183,0.01689
650.94747,0.01709
649.98310,0.01716
649.01873,0.01712
648.05437,0.01713
647.09000,0.01735
646.12563,0.01777
645.16127,0.01817
644.19690,0.01837
643.23253,0.01850
642.26817,0.01875
641.30380,0.01907
640.33943,0.01933
639.37507,0.01949
638.41070,0.01959
637.44633,0.01971
636.48197,0.01995
635.51760,0.02032
634.55323,0.02066
633.58887,0.02078
632.62450,0.02083
631.66013,0.02107
630.69577,0.02147
629.73140,0.02187
628.76703,0.02217
627.80267,0.02238
626.83830,0.02258
625.87393,0.02280
624.90957,0.02294
623.94520,0.02291
622.98083,0.02289
622.01647,0.02314
621.05210,0.02364
620.08774,0.02401
619.12337,0.02405
618.15900,0.02399
617.19464,0.02412
616.23027,0.02437
615.26590,0.02458
614.30154,0.02470
613.33717,0.02475
612.37280,0.02482
611.40844,0.02493
610.44407,0.02504
609.47970,0.02510
608.51534,0.02509
607.55097,0.02507
606.58660,0.02514
605.62224,0.02533
604.65787,0.02553
603.69350,0.02558
602.72914,0.02540
601.76477,0.02506
600.80040,0.02481
599.83604,0.02473
598.87167,0.02465
597.90730,0.02447
596.94294,0.02425
595.97857,0.02411
595.01420,0.02403
594.04984,0.02387
593.08547,0.02364
592.12110,0.02354
591.15674,0.02363
590.19237,0.02362
589.22800,0.02346
588.26364,0.02338
587.29927,0.02334
586.33490,0.02318
585.37054,0.02298
584.40617,0.02291
583.44180,0.02291
582.47744,0.02281
581.51307,0.02262
580.54870,0.02241
579.58434,0.02224
578.61997,0.02217
577.65560,0.02222
576.69124,0.02242
575.72687,0.02267
574.76250,0.02275
573.79814,0.02261
572.83377,0.02254
571.86940,0.02269
570.90504,0.02273
569.94067,0.02242
568.97630,0.02195
568.01194,0.02170
567.04757,0.02180
566.08320,0.02206
565.11884,0.02214
564.15447,0.02196
563.19010,0.02171
562.22574,0.02154
561.26137,0.02155
560.29700,0.02186
559.33264,0.02231
558.36827,0.02253
557.40390,0.02246
556.43954,0.02235
555.47517,0.02237
554.51081,0.02247
553.54644,0.02266
552.58207,0.02288
551.61771,0.02284
550.65334,0.02237
549.68897,0.02172
548.72461,0.02129
547.76024,0.02124
546.79587,0.02144
545.83151,0.02163
544.86714,0.02172
543.90277,0.02183
542.93841,0.02204
541.97404,0.02221
541.00967,0.02213
540.04531,0.02182
539.08094,0.02151
538.11657,0.02141
537.15221,0.02156
536.18784,0.02180
535.22347,0.02189
534.25911,0.02180
533.29474,0.02181
532.33037,0.02209
531.36601,0.02240
530.40164,0.02231
529.43727,0.02185
528.47291,0.02156
527.50854,0.02162
526.54417,0.02166
525.57981,0.02163
524.61544,0.02185
523.65107,0.02219
522.68671,0.02236
521.72234,0.02243
520.75797,0.02252
519.79361,0.02241
518.82924,0.02193
517.86487,0.02145
516.90051,0.02135
515.93614,0.02141
514.97177,0.02114
514.00741,0.02083
513.04304,0.02113
512.07867,0.02180
511.11431,0.02202
510.14994,0.02171
509.18557,0.02142
508.22121,0.02139
507.25684,0.02154
506.29247,0.02167
505.32811,0.02160
504.36374,0.02156
503.39937,0.02167
502.43501,0.02148
501.47064,0.02082
500.50627,0.02041
499.54191,0.02064
498.57754,0.02087
497.61317,0.02070
496.64881,0.02066
495.68444,0.02112
494.72007,0.02167
493.75571,0.02161
492.79134,0.02080
491.82698,0.01978
490.86261,0.01929
489.89824,0.01936
488.93388,0.01949
487.96951,0.01956
487.00514,0.01994
486.04078,0.02052
485.07641,0.02078
484.11204,0.02072
483.14768,0.02078
482.18331,0.02083
481.21894,0.02052
480.25458,0.02014
479.29021,0.02022
478.32584,0.02069
477.36148,0.02110
476.39711,0.02114
475.43274,0.02095
474.46838,0.02077
473.50401,0.02063
472.53964,0.02048
471.57528,0.02029
470.61091,0.01981
469.64654,0.01918
468.68218,0.01910
467.71781,0.01964
466.75344,0.01996
465.78908,0.01975
464.82471,0.01944
463.86034,0.01922
462.89598,0.01874
461.93161,0.01788
460.96724,0.01717
460.00288,0.01710
459.03851,0.01758
458.07414,0.01830
457.10978,0.01912
456.14541,0.01963
455.18104,0.01927
454.21668,0.01826
453.25231,0.01757
452.28794,0.01767
451.32358,0.01801
450.35921,0.01769
449.39484,0.01659
448.43048,0.01582
447.46611,0.01632
446.50174,0.01710
445.53738,0.01662
444.57301,0.01533
443.60864,0.01459
442.64428,0.01458
441.67991,0.01488
440.71554,0.01521
439.75118,0.01496
438.78681,0.01449
437.82244,0.01492
436.85808,0.01564
435.89371,0.01494
434.92934,0.01360
433.96498,0.01379
433.00061,0.01515
432.03624,0.01556
431.07188,0.01449
430.10751,0.01340
429.14315,0.01324
428.17878,0.01307
427.21441,0.01187
426.25005,0.01032
425.28568,0.00963
424.32131,0.00971
423.35695,0.00957
422.39258,0.00896
421.42821,0.00815
420.46385,0.00698
419.49948,0.00548
418.53511,0.00457
417.57075,0.00511
416.60638,0.00565
415.64201,0.00523
414.67765,0.00485
413.71328,0.00570
412.74891,0.00645
411.78455,0.00546
410.82018,0.00330
409.85581,0.00199
408.89145,0.00276
407.92708,0.00520
406.96271,0.00745
405.99835,0.00737
405.03398,0.00457
404.06961,0.00138
403.10525,0.00007
402.14088,0.00013
401.17651,0.00027
400.21215,0.00027
399.24778,0.00027
