1900.76660,0.00309
1899.80223,0.00298
1898.83787,0.00286
1897.87350,0.00275
1896.90913,0.00264
1895.94477,0.00252
1894.98040,0.00241
1894.01603,0.00230
1893.05167,0.00218
1892.08730,0.00207
1891.12293,0.00195
1890.15857,0.00184
1889.19420,0.00173
1888.22983,0.00161
1887.26547,0.00150
1886.30110,0.00139
1885.33673,0.00127
1884.37237,0.00116
1883.40800,0.00105
1882.44364,0.00093
1881.47927,0.00082
1880.51490,0.00073
1879.55054,0.00076
1878.58617,0.00085
1877.62180,0.00079
1876.65744,0.00058
1875.69307,0.00057
1874.72870,0.00074
1873.76434,0.00062
1872.79997,0.00017
1871.83560,0.00009
1870.87124,0.00118
1869.90687,0.00269
1868.94250,0.00290
1867.97814,0.00198
1867.01377,0.00111
1866.04940,0.00063
1865.08504,0.00026
1864.12067,0.00015
1863.15630,0.00029
1862.19194,0.00055
1861.22757,0.00101
1860.26320,0.00144
1859.29884,0.00152
1858.33447,0.00138
1857.37010,0.00140
1856.40574,0.00161
1855.44137,0.00170
1854.47700,0.00178
1853.51264,0.00197
1852.54827,0.00196
1851.58390,0.00186
1850.61954,0.00227
1849.65517,0.00315
1848.69080,0.00388
1847.72644,0.00389
1846.76207,0.00355
1845.79770,0.00488
1844.83334,0.00725
1843.86897,0.00778
1842.90460,0.00643
1841.94024,0.00556
1840.97587,0.00593
1840.01150,0.00624
1839.04714,0.00663
1838.08277,0.00711
1837.11840,0.00749
1836.15404,0.00780
1835.18967,0.00803
1834.22530,0.00846
1833.26094,0.00889
1832.29657,0.00958
1831.33220,0.01126
1830.36784,0.01268
1829.40347,0.01251
1828.43910,0.01123
1827.47474,0.01114
1826.51037,0.01276
1825.54600,0.01416
1824.58164,0.01414
1823.61727,0.01345
1822.65290,0.01349
1821.68854,0.01384
1820.72417,0.01398
1819.75981,0.01419
1818.79544,0.01464
1817.83107,0.01494
1816.86671,0.01500
1815.90234,0.01497
1814.93797,0.01508
1813.97361,0.01539
1813.00924,0.01591
1812.04487,0.01664
1811.08051,0.01689
1810.11614,0.01651
1809.15177,0.01617
1808.18741,0.01638
1807.22304,0.01675
1806.25867,0.01683
1805.29431,0.01687
1804.32994,0.01706
1803.36557,0.01750
1802.40121,0.01799
1801.43684,0.01841
1800.47247,0.01878
1799.50811,0.01876
1798.54374,0.01852
1797.57937,0.01863
1796.61501,0.01922
1795.65064,0.01961
1794.68627,0.02014
1793.72191,0.02175
1792.75754,0.02315
1791.79317,0.02334
1790.82881,0.02262
1789.86444,0.02265
1788.90007,0.02333
1787.93571,0.02415
1786.97134,0.02524
1786.00697,0.02669
1785.04261,0.02811
1784.07824,0.02879
1783.11387,0.02935
1782.14951,0.03070
1781.18514,0.03229
1780.22077,0.03342
1779.25641,0.03406
1778.29204,0.03496
1777.32767,0.03636
1776.36331,0.03800
1775.39894,0.03945
1774.43457,0.04131
1773.47021,0.04456
1772.50584,0.04726
1771.54147,0.04790
1770.57711,0.04755
1769.61274,0.04911
1768.64837,0.05163
1767.68401,0.05325
1766.71964,0.05406
1765.75527,0.05537
1764.79091,0.05730
1763.82654,0.05923
1762.86217,0.06198
1761.89781,0.06436
1760.93344,0.06558
1759.96907,0.06637
1759.00471,0.06805
1758.04034,0.07049
1757.07597,0.07227
1756.11161,0.07341
1755.14724,0.07447
1754.18288,0.07617
1753.21851,0.07862
1752.25414,0.08156
1751.28978,0.08364
1750.32541,0.08443
1749.36104,0.08543
1748.39668,0.08704
1747.43231,0.08809
1746.46794,0.08872
1745.50358,0.08973
1744.53921,0.09153
1743.57484,0.09302
1742.61048,0.09379
1741.64611,0.09486
1740.68174,0.09690
1739.71738,0.09792
1738.75301,0.09755
1737.78864,0.09736
1736.82428,0.09822
1735.85991,0.10117
1734.89554,0.10507
1733.93118,0.10557
1732.96681,0.10248
1732.00244,0.10017
1731.03808,0.10092
1730.07371,0.10120
1729.10934,0.10056
1728.14498,0.09987
1727.18061,0.09991
1726.21624,0.09991
1725.25188,0.09973
1724.28751,0.09960
1723.32314,0.09893
1722.35878,0.09773
1721.39441,0.09644
1720.43004,0.09619
1719.46568,0.09830
1718.50131,0.09976
1717.53694,0.09777
1716.57258,0.09389
1715.60821,0.09221
1714.64384,0.09116
1713.67948,0.08911
1712.71511,0.08723
1711.75074,0.08640
1710.78638,0.08567
1709.82201,0.08433
1708.85764,0.08311
1707.89328,0.08243
1706.92891,0.08162
1705.96454,0.08012
1705.00018,0.07806
1704.03581,0.07581
1703.07144,0.07353
1702.10708,0.07451
1701.14271,0.07810
1700.17834,0.07628
1699.21398,0.06971
1698.24961,0.06485
1697.28524,0.06679
1696.32088,0.06717
1695.35651,0.06427
1694.39214,0.06000
1693.42778,0.05812
1692.46341,0.05732
1691.49905,0.05630
1690.53468,0.05513
1689.57031,0.05371
1688.60595,0.05202
1687.64158,0.05029
1686.67721,0.04963
1685.71285,0.05211
1684.74848,0.05315
1683.78411,0.04985
1682.81975,0.04447
1681.85538,0.04248
1680.89101,0.04196
1679.92665,0.04089
1678.96228,0.03941
1677.99791,0.03850
1677.03355,0.03900
1676.06918,0.03971
1675.10481,0.03850
1674.14045,0.03600
1673.17608,0.03482
1672.21171,0.03493
1671.24735,0.03487
1670.28298,0.03506
1669.31861,0.03453
1668.35425,0.03295
1667.38988,0.03151
1666.42551,0.03144
1665.46115,0.03155
1664.49678,0.03203
1663.53241,0.03280
1662.56805,0.03276
1661.60368,0.03192
1660.63931,0.03131
1659.67495,0.03132
1658.71058,0.03130
1657.74621,0.03143
1656.78185,0.03190
1655.81748,0.03293
1654.85311,0.03650
1653.88875,0.04216
1652.92438,0.04211
1651.96001,0.03705
1650.99565,0.03304
1650.03128,0.03443
1649.06691,0.03640
1648.10255,0.03859
1647.13818,0.04064
1646.17381,0.04136
1645.20945,0.04101
1644.24508,0.04109
1643.28071,0.04230
1642.31635,0.04391
1641.35198,0.04530
1640.38761,0.04670
1639.42325,0.04837
1638.45888,0.05026
1637.49451,0.05282
1636.53015,0.05698
1635.56578,0.05960
1634.60141,0.05952
1633.63705,0.05867
1632.67268,0.06024
1631.70831,0.06253
1630.74395,0.06479
1629.77958,0.06724
1628.81522,0.07006
1627.85085,0.07235
1626.88648,0.07382
1625.92212,0.07502
1624.95775,0.07740
1623.99338,0.07980
1623.02902,0.08092
1622.06465,0.08125
1621.10028,0.08215
1620.13592,0.08346
1619.17155,0.08448
1618.20718,0.08682
1617.24282,0.08889
1616.27845,0.08868
1615.31408,0.08696
1614.34972,0.08647
1613.38535,0.08706
1612.42098,0.08727
1611.45662,0.08742
1610.49225,0.08745
1609.52788,0.08737
1608.56352,0.08713
1607.59915,0.08681
1606.63478,0.08644
1605.67042,0.08601
1604.70605,0.08584
1603.74168,0.08569
1602.77732,0.08540
1601.81295,0.08500
1600.84858,0.08476
1599.88422,0.08466
1598.91985,0.08456
1597.95548,0.08451
1596.99112,0.08444
1596.02675,0.08443
1595.06238,0.08430
1594.09802,0.08426
1593.13365,0.08426
1592.16928,0.08423
1591.20492,0.08419
1590.24055,0.08416
1589.27618,0.08416
1588.31182,0.08398
1587.34745,0.08381
1586.38308,0.08360
1585.41872,0.08341
1584.45435,0.08324
1583.48998,0.08291
1582.52562,0.08241
1581.56125,0.08168
1580.59688,0.08110
1579.63252,0.08052
1578.66815,0.08015
1577.70378,0.08122
1576.73942,0.08171
1575.77505,0.07983
1574.81068,0.07654
1573.84632,0.07499
1572.88195,0.07422
1571.91758,0.07350
1570.95322,0.07387
1569.98885,0.07365
1569.02448,0.07168
1568.06012,0.06878
1567.09575,0.06731
1566.13139,0.06647
1565.16702,0.06511
1564.20265,0.06303
1563.23829,0.06080
1562.27392,0.05949
1561.30955,0.06029
1560.34519,0.06356
1559.38082,0.06512
1558.41645,0.06113
1557.45209,0.05396
1556.48772,0.04943
1555.52335,0.04866
1554.55899,0.04769
1553.59462,0.04550
1552.63025,0.04325
1551.66589,0.04268
1550.70152,0.04206
1549.73715,0.04019
1548.77279,0.03758
1547.80842,0.03560
1546.84405,0.03498
1545.87969,0.03407
1544.91532,0.03215
1543.95095,0.03022
1542.98659,0.02956
1542.02222,0.02914
1541.05785,0.02903
1540.09349,0.02900
1539.12912,0.02626
1538.16475,0.02168
1537.20039,0.01855
1536.23602,0.01799
1535.27165,0.01823
1534.30729,0.01844
1533.34292,0.01738
1532.37855,0.01507
1531.41419,0.01316
1530.44982,0.01210
1529.48545,0.01150
1528.52109,0.01084
1527.55672,0.01004
1526.59235,0.00963
1525.62799,0.00871
1524.66362,0.00715
1523.69925,0.00607
1522.73489,0.00679
1521.77052,0.00744
1520.80615,0.00604
1519.84179,0.00368
1518.87742,0.00266
1517.91305,0.00339
1516.94869,0.00340
1515.98432,0.00243
1515.01995,0.00134
1514.05559,0.00107
1513.09122,0.00113
1512.12685,0.00082
1511.16249,0.00050
1510.19812,0.00058
1509.23375,0.00125
1508.26939,0.00315
1507.30502,0.00572
1506.34065,0.00574
1505.37629,0.00272
1504.41192,0.00018
1503.44756,-0.00000
1502.48319,0.00056
1501.51882,0.00096
1500.55446,0.00158
1499.59009,0.00250
1498.62572,0.00286
1497.66136,0.00338
1496.69699,0.00384
1495.73262,0.00373
1494.76826,0.00301
1493.80389,0.00309
1492.83952,0.00392
1491.87516,0.00494
1490.91079,0.00618
1489.94642,0.00669
1488.98206,0.00679
1488.01769,0.00728
1487.05332,0.00795
1486.08896,0.00825
1485.12459,0.00849
1484.16022,0.00929
1483.19586,0.01022
1482.23149,0.01109
1481.26712,0.01177
1480.30276,0.01237
1479.33839,0.01295
1478.37402,0.01366
1477.40966,0.01497
1476.44529,0.01603
1475.48092,0.01665
1474.51656,0.01765
1473.55219,0.01962
1472.58782,0.02110
1471.62346,0.02121
1470.65909,0.02127
1469.69472,0.02212
1468.73036,0.02353
1467.76599,0.02478
1466.80162,0.02623
1465.83726,0.02845
1464.87289,0.03002
1463.90852,0.03065
1462.94416,0.03098
1461.97979,0.03205
1461.01542,0.03331
1460.05106,0.03485
1459.08669,0.03721
1458.12232,0.04043
1457.15796,0.04278
1456.19359,0.04301
1455.22922,0.04248
1454.26486,0.04333
1453.30049,0.04521
1452.33612,0.04718
1451.37176,0.04886
1450.40739,0.05057
1449.44302,0.05268
1448.47866,0.05500
1447.51429,0.05663
1446.54992,0.05780
1445.58556,0.05935
1444.62119,0.06116
1443.65682,0.06284
1442.69246,0.06428
1441.72809,0.06590
1440.76373,0.06768
1439.79936,0.06940
1438.83499,0.07136
1437.87063,0.07447
1436.90626,0.07697
1435.94189,0.07751
1434.97753,0.07746
1434.01316,0.07897
1433.04879,0.08098
1432.08443,0.08277
1431.12006,0.08472
1430.15569,0.08668
1429.19133,0.08806
1428.22696,0.08932
1427.26259,0.09072
1426.29823,0.09222
1425.33386,0.09383
1424.36949,0.09543
1423.40513,0.09660
1422.44076,0.09722
1421.47639,0.09849
1420.51203,0.10123
1419.54766,0.10347
1418.58329,0.10409
1417.61893,0.10393
1416.65456,0.10472
1415.69019,0.10566
1414.72583,0.10671
1413.76146,0.10799
1412.79709,0.10932
1411.83273,0.11046
1410.86836,0.11145
1409.90399,0.11241
1408.93963,0.11323
1407.97526,0.11400
1407.01089,0.11494
1406.04653,0.11619
1405.08216,0.11704
1404.11779,0.11735
1403.15343,0.11779
1402.18906,0.11865
1401.22469,0.11983
1400.26033,0.12121
1399.29596,0.12219
1398.33159,0.12243
1397.36723,0.12265
1396.40286,0.12378
1395.43849,0.12509
1394.47413,0.12556
1393.50976,0.12536
1392.54539,0.12564
1391.58103,0.12656
1390.61666,0.12738
1389.65229,0.12816
1388.68793,0.12935
1387.72356,0.13035
1386.75919,0.13058
1385.79483,0.13057
1384.83046,0.13096
1383.86609,0.13158
1382.90173,0.13217
1381.93736,0.13290
1380.97299,0.13358
1380.00863,0.13404
1379.04426,0.13443
1378.07989,0.13477
1377.11553,0.13522
1376.15116,0.13591
1375.18680,0.13681
1374.22243,0.13732
1373.25806,0.13731
1372.29370,0.13742
1371.32933,0.13784
1370.36496,0.13845
1369.40060,0.13899
1368.43623,0.13943
1367.47186,0.13976
1366.50750,0.13997
1365.54313,0.14035
1364.57876,0.14111
1363.61440,0.14196
1362.65003,0.14230
1361.68566,0.14232
1360.72130,0.14241
1359.75693,0.14255
1358.79256,0.14277
1357.82820,0.14315
1356.86383,0.14362
1355.89946,0.14400
1354.93510,0.14430
1353.97073,0.14454
1353.00636,0.14484
1352.04200,0.14513
1351.07763,0.14535
1350.11326,0.14563
1349.14890,0.14587
1348.18453,0.14604
1347.22016,0.14612
1346.25580,0.14624
1345.29143,0.14642
1344.32706,0.14659
1343.36270,0.14679
1342.39833,0.14710
1341.43396,0.14768
1340.46960,0.14823
1339.50523,0.14842
1338.54086,0.14837
1337.57650,0.14846
1336.61213,0.14875
1335.64776,0.14902
1334.68340,0.14931
1333.71903,0.14960
1332.75466,0.14992
1331.79030,0.15024
1330.82593,0.15061
1329.86156,0.15109
1328.89720,0.15161
1327.93283,0.15207
1326.96846,0.15239
1326.00410,0.15279
1325.03973,0.15329
1324.07536,0.15383
1323.11100,0.15436
1322.14663,0.15488
1321.18226,0.15552
1320.21790,0.15612
1319.25353,0.15670
1318.28916,0.15726
1317.32480,0.15786
1316.36043,0.15847
1315.39606,0.15910
1314.43170,0.15987
1313.46733,0.16060
1312.50297,0.16134
1311.53860,0.16208
1310.57423,0.16286
1309.60987,0.16364
1308.64550,0.16442
1307.68113,0.16518
1306.71677,0.16588
1305.75240,0.16671
1304.78803,0.16761
1303.82367,0.16849
1302.85930,0.16928
1301.89493,0.17005
1300.93057,0.17088
1299.96620,0.17161
1299.00183,0.17231
1298.03747,0.17304
1297.07310,0.17387
1296.10873,0.17458
1295.14437,0.17520
1294.18000,0.17595
1293.21563,0.17678
1292.25127,0.17753
1291.28690,0.17813
1290.32253,0.17880
1289.35817,0.17954
1288.39380,0.18024
1287.42943,0.18084
1286.46507,0.18133
1285.50070,0.18187
1284.53633,0.18244
1283.57197,0.18307
1282.60760,0.18373
1281.64323,0.18435
1280.67887,0.18490
1279.71450,0.18536
1278.75013,0.18579
1277.78577,0.18612
1276.82140,0.18649
1275.85703,0.18691
1274.89267,0.18734
1273.92830,0.18779
1272.96393,0.18823
1271.99957,0.18860
1271.03520,0.18883
1270.07083,0.18907
1269.10647,0.18936
1268.14210,0.18971
1267.17773,0.19010
1266.21337,0.19045
1265.24900,0.19071
1264.28463,0.19089
1263.32027,0.19113
1262.35590,0.19147
1261.39153,0.19192
1260.42717,0.19233
1259.46280,0.19262
1258.49843,0.19287
1257.53407,0.19315
1256.56970,0.19349
1255.60533,0.19374
1254.64097,0.19394
1253.67660,0.19418
1252.71223,0.19454
1251.74787,0.19505
1250.78350,0.19559
1249.81914,0.19610
1248.85477,0.19656
1247.89040,0.19712
1246.92604,0.19774
1245.96167,0.19832
1244.99730,0.19893
1244.03294,0.19955
1243.06857,0.20009
1242.10420,0.20063
1241.13984,0.20136
1240.17547,0.20215
1239.21110,0.20295
1238.24674,0.20379
1237.28237,0.20468
1236.31800,0.20557
1235.35364,0.20632
1234.38927,0.20702
1233.42490,0.20777
1232.46054,0.20872
1231.49617,0.20979
1230.53180,0.21085
1229.56744,0.21175
1228.60307,0.21248
1227.63870,0.21325
1226.67434,0.21401
1225.70997,0.21471
1224.74560,0.21534
1223.78124,0.21600
1222.81687,0.21660
1221.85250,0.21699
1220.88814,0.21724
1219.92377,0.21737
1218.95940,0.21747
1217.99504,0.21757
1217.03067,0.21766
1216.06630,0.21755
1215.10194,0.21722
1214.13757,0.21695
1213.17320,0.21687
1212.20884,0.21682
1211.24447,0.21662
1210.28010,0.21631
1209.31574,0.21605
1208.35137,0.21591
1207.38700,0.21580
1206.42264,0.21569
1205.45827,0.21563
1204.49390,0.21552
1203.52954,0.21539
1202.56517,0.21518
1201.60080,0.21484
1200.63644,0.21446
1199.67207,0.21430
1198.70770,0.21444
1197.74334,0.21457
1196.77897,0.21455
1195.81460,0.21442
1194.85024,0.21441
1193.88587,0.21462
1192.92150,0.21493
1191.95714,0.21514
1190.99277,0.21508
1190.02840,0.21501
1189.06404,0.21515
1188.09967,0.21553
1187.13531,0.21588
1186.17094,0.21602
1185.20657,0.21612
1184.24221,0.21637
1183.27784,0.21677
1182.31347,0.21722
1181.34911,0.21770
1180.38474,0.21799
1179.42037,0.21812
1178.45601,0.21832
1177.49164,0.21861
1176.52727,0.21889
1175.56291,0.21910
1174.59854,0.21931
1173.63417,0.21950
1172.66981,0.21979
1171.70544,0.22003
1170.74107,0.22005
1169.77671,0.21996
1168.81234,0.21987
1167.84797,0.21977
1166.88361,0.21951
1165.91924,0.21923
1164.95487,0.21919
1163.99051,0.21938
1163.02614,0.21945
1162.06177,0.21911
1161.09741,0.21868
1160.13304,0.21838
1159.16867,0.21813
1158.20431,0.21772
1157.23994,0.21718
1156.27557,0.21669
1155.31121,0.21627
1154.34684,0.21594
1153.38247,0.21554
1152.41811,0.21502
1151.45374,0.21439
1150.48937,0.21375
1149.52501,0.21310
1148.56064,0.21252
1147.59627,0.21206
1146.63191,0.21160
1145.66754,0.21117
1144.70317,0.21070
1143.73881,0.21009
1142.77444,0.20952
1141.81007,0.20928
1140.84571,0.20925
1139.88134,0.20898
1138.91697,0.20848
1137.95261,0.20795
1136.98824,0.20759
1136.02387,0.20737
1135.05951,0.20718
1134.09514,0.20692
1133.13077,0.20667
1132.16641,0.20650
1131.20204,0.20634
1130.23767,0.20624
1129.27331,0.20621
1128.30894,0.20609
1127.34457,0.20599
1126.38021,0.20624
1125.41584,0.20672
1124.45148,0.20703
1123.48711,0.20722
1122.52274,0.20743
1121.55838,0.20755
1120.59401,0.20765
1119.62964,0.20788
1118.66528,0.20818
1117.70091,0.20849
1116.73654,0.20907
1115.77218,0.20982
1114.80781,0.21039
1113.84344,0.21071
1112.87908,0.21116
1111.91471,0.21194
1110.95034,0.21280
1109.98598,0.21344
1109.02161,0.21393
1108.05724,0.21468
1107.09288,0.21583
1106.12851,0.21702
1105.16414,0.21805
1104.19978,0.21901
1103.23541,0.22003
1102.27104,0.22130
1101.30668,0.22285
1100.34231,0.22436
1099.37794,0.22563
1098.41358,0.22677
1097.44921,0.22799
1096.48484,0.22944
1095.52048,0.23114
1094.55611,0.23289
1093.59174,0.23464
1092.62738,0.23648
1091.66301,0.23826
1090.69864,0.23991
1089.73428,0.24164
1088.76991,0.24359
1087.80554,0.24562
1086.84118,0.24747
1085.87681,0.24922
1084.91244,0.25099
1083.94808,0.25289
1082.98371,0.25498
1082.01934,0.25729
1081.05498,0.25964
1080.09061,0.26159
1079.12624,0.26335
1078.16188,0.26536
1077.19751,0.26773
1076.23314,0.27009
1075.26878,0.27221
1074.30441,0.27426
1073.34004,0.27642
1072.37568,0.27893
1071.41131,0.28164
1070.44694,0.28438
1069.48258,0.28700
1068.51821,0.28943
1067.55384,0.29184
1066.58948,0.29447
1065.62511,0.29750
1064.66074,0.30075
1063.69638,0.30412
1062.73201,0.30746
1061.76765,0.31058
1060.80328,0.31366
1059.83891,0.31678
1058.87455,0.31993
1057.91018,0.32319
1056.94581,0.32675
1055.98145,0.33015
1055.01708,0.33297
1054.05271,0.33537
1053.08835,0.33745
1052.12398,0.33923
1051.15961,0.34055
1050.19525,0.34141
1049.23088,0.34184
1048.26651,0.34166
1047.30215,0.34091
1046.33778,0.33970
1045.37341,0.33791
1044.40905,0.33550
1043.44468,0.33308
1042.48031,0.33055
1041.51595,0.32726
1040.55158,0.32354
1039.58721,0.31992
1038.62285,0.31605
1037.65848,0.31158
1036.69411,0.30696
1035.72975,0.30263
1034.76538,0.29838
1033.80101,0.29386
1032.83665,0.28916
1031.87228,0.28440
1030.90791,0.27948
1029.94355,0.27452
1028.97918,0.26960
1028.01481,0.26460
1027.05045,0.25949
1026.08608,0.25447
1025.12171,0.24965
1024.15735,0.24521
1023.19298,0.24110
1022.22861,0.23687
1021.26425,0.23248
1020.29988,0.22819
1019.33551,0.22408
1018.37115,0.21998
1017.40678,0.21615
1016.44241,0.21291
1015.47805,0.20985
1014.51368,0.20664
1013.54931,0.20347
1012.58495,0.20063
1011.62058,0.19800
1010.65621,0.19547
1009.69185,0.19325
1008.72748,0.19128
1007.76311,0.18937
1006.79875,0.18758
1005.83438,0.18612
1004.87001,0.18486
1003.90565,0.18358
1002.94128,0.18240
1001.97691,0.18143
1001.01255,0.18056
1000.04818,0.17965
999.08382,0.17881
998.11945,0.17811
997.15508,0.17756
996.19072,0.17696
995.22635,0.17620
994.26198,0.17539
993.29762,0.17463
992.33325,0.17393
991.36888,0.17318
990.40452,0.17229
989.44015,0.17135
988.47578,0.17052
987.51142,0.16973
986.54705,0.16879
985.58268,0.16780
984.61832,0.16674
983.65395,0.16553
982.68958,0.16430
981.72522,0.16314
980.76085,0.16190
979.79648,0.16056
978.83212,0.15921
977.86775,0.15777
976.90338,0.15628
975.93902,0.15477
974.97465,0.15322
974.01028,0.15162
973.04592,0.15001
972.08155,0.14831
971.11718,0.14641
970.15282,0.14450
969.18845,0.14270
968.22408,0.14095
967.25972,0.13912
966.29535,0.13715
965.33098,0.13525
964.36662,0.13337
963.40225,0.13143
962.43788,0.12946
961.47352,0.12748
960.50915,0.12547
959.54478,0.12337
958.58042,0.12128
957.61605,0.11918
956.65168,0.11707
955.68732,0.11492
954.72295,0.11278
953.75858,0.11084
952.79422,0.10911
951.82985,0.10727
950.86548,0.10521
949.90112,0.10318
948.93675,0.10133
947.97238,0.09948
947.00802,0.09756
946.04365,0.09570
945.07928,0.09391
944.11492,0.09208
943.15055,0.09024
942.18618,0.08850
941.22182,0.08676
940.25745,0.08497
939.29308,0.08329
938.32872,0.08164
937.36435,0.07987
936.39998,0.07804
935.43562,0.07627
934.47125,0.07457
933.50689,0.07294
932.54252,0.07146
931.57815,0.07005
930.61379,0.06852
929.64942,0.06686
928.68505,0.06528
927.72069,0.06387
926.75632,0.06245
925.79195,0.06102
924.82759,0.05969
923.86322,0.05838
922.89885,0.05710
921.93449,0.05588
920.97012,0.05463
920.00575,0.05335
919.04139,0.05225
918.07702,0.05129
917.11265,0.05032
916.14829,0.04933
915.18392,0.04842
914.21955,0.04755
913.25519,0.04676
912.29082,0.04610
911.32645,0.04553
910.36209,0.04499
909.39772,0.04447
908.43335,0.04411
907.46899,0.04381
906.50462,0.04327
905.54025,0.04266
904.57589,0.04240
903.61152,0.04239
902.64715,0.04220
901.68279,0.04192
900.71842,0.04182
899.75405,0.04187
898.78969,0.04194
897.82532,0.04196
896.86095,0.04195
895.89659,0.04204
894.93222,0.04225
893.96785,0.04247
893.00349,0.04274
892.03912,0.04303
891.07475,0.04325
890.11039,0.04345
889.14602,0.04375
888.18165,0.04410
887.21729,0.04441
886.25292,0.04471
885.28855,0.04507
884.32419,0.04541
883.35982,0.04561
882.39545,0.04566
881.43109,0.04568
880.46672,0.04586
879.50235,0.04634
878.53799,0.04693
877.57362,0.04732
876.60925,0.04742
875.64489,0.04740
874.68052,0.04746
873.71615,0.04758
872.75179,0.04761
871.78742,0.04763
870.82306,0.04781
869.85869,0.04805
868.89432,0.04811
867.92996,0.04808
866.96559,0.04807
866.00122,0.04799
865.03686,0.04774
864.07249,0.04735
863.10812,0.04693
862.14376,0.04656
861.17939,0.04635
860.21502,0.04623
859.25066,0.04604
858.28629,0.04568
857.32192,0.04517
856.35756,0.04465
855.39319,0.04424
854.42882,0.04391
853.46446,0.04351
852.50009,0.04298
851.53572,0.04249
850.57136,0.04208
849.60699,0.04158
848.64262,0.04089
847.67826,0.04006
846.71389,0.03922
845.74952,0.03849
844.78516,0.03797
843.82079,0.03751
842.85642,0.03690
841.89206,0.03611
840.92769,0.03527
839.96332,0.03450
838.99896,0.03373
838.03459,0.03295
837.07022,0.03218
836.10586,0.03139
835.14149,0.03052
834.17712,0.02963
833.21276,0.02892
832.24839,0.02830
831.28402,0.02749
830.31966,0.02652
829.35529,0.02563
828.39092,0.02488
827.42656,0.02417
826.46219,0.02351
825.49782,0.02288
824.53346,0.02224
823.56909,0.02154
822.60472,0.02074
821.64036,0.01990
820.67599,0.01906
819.71162,0.01820
818.74726,0.01747
817.78289,0.01687
816.81852,0.01625
815.85416,0.01561
814.88979,0.01493
813.92542,0.01417
812.96106,0.01348
811.99669,0.01296
811.03232,0.01248
810.06796,0.01201
809.10359,0.01157
808.13923,0.01103
807.17486,0.01037
806.21049,0.00984
805.24613,0.00947
804.28176,0.00901
803.31739,0.00839
802.35303,0.00785
801.38866,0.00752
800.42429,0.00729
799.45993,0.00697
798.49556,0.00646
797.53119,0.00587
796.56683,0.00536
795.60246,0.00499
794.63809,0.00471
793.67373,0.00441
792.70936,0.00406
791.74499,0.00378
790.78063,0.00361
789.81626,0.00350
788.85189,0.00351
787.88753,0.00349
786.92316,0.00318
785.95879,0.00262
784.99443,0.00214
784.03006,0.00191
783.06569,0.00186
782.10133,0.00179
781.13696,0.00173
780.17259,0.00171
779.20823,0.00163
778.24386,0.00141
777.27949,0.00114
776.31513,0.00091
775.35076,0.00075
774.38639,0.00076
773.42203,0.00086
772.45766,0.00083
771.49329,0.00065
770.52893,0.00042
769.56456,0.00023
768.60019,0.00009
767.63583,0.00015
766.67146,0.00036
765.70709,0.00040
764.74273,0.00037
763.77836,0.00046
762.81399,0.00048
761.84963,0.00024
760.88526,0.00002
759.92089,0.00001
758.95653,0.00004
757.99216,0.00008
757.02779,0.00015
756.06343,0.00022
755.09906,0.00034
754.13469,0.00053
753.17033,0.00052
752.20596,0.00023
751.24159,0.00009
750.27723,0.00029
749.31286,0.00053
748.34849,0.00068
747.38413,0.00069
746.41976,0.00052
745.45540,0.00034
744.49103,0.00040
743.52666,0.00052
742.56230,0.00042
741.59793,0.00030
740.63356,0.00042
739.66920,0.00071
738.70483,0.00098
737.74046,0.00122
736.77610,0.00131
735.81173,0.00116
734.84736,0.00100
733.88300,0.00110
732.91863,0.00143
731.95426,0.00179
730.98990,0.00206
730.02553,0.00219
729.06116,0.00214
728.09680,0.00207
727.13243,0.00218
726.16806,0.00243
725.20370,0.00264
724.23933,0.00276
723.27496,0.00287
722.31060,0.00308
721.34623,0.00344
720.38186,0.00377
719.41750,0.00387
718.45313,0.00378
717.48876,0.00370
716.52440,0.00389
715.56003,0.00436
714.59566,0.00475
713.63130,0.00482
712.66693,0.00476
711.70256,0.00470
710.73820,0.00467
709.77383,0.00480
708.80946,0.00509
707.84510,0.00539
706.88073,0.00563
705.91636,0.00574
704.95200,0.00585
703.98763,0.00617
703.02326,0.00642
702.05890,0.00630
701.09453,0.00622
700.13016,0.00639
699.16580,0.00666
698.20143,0.00683
697.23706,0.00689
696.27270,0.00703
695.30833,0.00743
694.34396,0.00793
693.37960,0.00820
692.41523,0.00827
691.45086,0.00822
690.48650,0.00817
689.52213,0.00835
688.55776,0.00863
687.59340,0.00877
686.62903,0.00881
685.66466,0.00894
684.70030,0.00908
683.73593,0.00921
682.77157,0.00947
681.80720,0.00967
680.84283,0.00966
679.87847,0.00964
678.91410,0.00984
677.94973,0.01012
676.98537,0.01018
676.02100,0.01015
675.05663,0.01008
674.09227,0.00996
673.12790,0.00984
672.16353,0.00983
671.19917,0.00984
670.23480,0.01031
669.27043,0.01609
668.30607,0.02009
667.34170,0.01763
666.37733,0.01093
665.41297,0.00921
664.44860,0.00982
663.48423,0.01015
662.51987,0.01034
661.55550,0.01070
660.59113,0.01107
659.62677,0.01132
658.66240,0.01149
657.69803,0.01178
656.73367,0.01187
655.76930,0.01176
654.80493,0.01190
653.84057,0.01222
652.87620,0.01237
651.91183,0.01223
650.94747,0.01221
649.98310,0.01250
649.01873,0.01289
648.05437,0.01305
647.09000,0.01296
646.12563,0.01294
645.16127,0.01296
644.19690,0.01313
643.23253,0.01341
642.26817,0.01358
641.30380,0.01371
640.33943,0.01396
639.37507,0.01412
638.41070,0.01397
637.44633,0.01404
636.48197,0.01466
635.51760,0.01540
634.55323,0.01584
633.58887,0.01595
632.62450,0.01614
631.66013,0.01651
630.69577,0.01690
629.73140,0.01712
628.76703,0.01726
627.80267,0.01751
626.83830,0.01782
625.87393,0.01815
624.90957,0.01842
623.94520,0.01881
622.98083,0.01957
622.01647,0.02038
621.05210,0.02086
620.08774,0.02124
619.12337,0.02188
618.15900,0.02269
617.19464,0.02356
616.23027,0.02432
615.26590,0.02485
614.30154,0.02533
613.33717,0.02590
612.37280,0.02650
611.40844,0.02727
610.44407,0.02843
609.47970,0.02972
608.51534,0.03075
607.55097,0.03139
606.58660,0.03201
605.62224,0.03289
604.65787,0.03380
603.69350,0.03470
602.72914,0.03561
601.76477,0.03674
600.80040,0.03808
599.83604,0.03950
598.87167,0.04093
597.90730,0.04200
596.94294,0.04282
595.97857,0.04384
595.01420,0.04512
594.04984,0.04627
593.08547,0.04745
592.12110,0.04890
591.15674,0.05002
590.19237,0.05080
589.22800,0.05178
588.26364,0.05288
587.29927,0.05381
586.33490,0.05453
585.37054,0.05515
584.40617,0.05556
583.44180,0.05592
582.47744,0.05640
581.51307,0.05681
580.54870,0.05677
579.58434,0.05620
578.61997,0.05538
577.65560,0.05454
576.69124,0.05376
575.72687,0.05269
574.76250,0.05127
573.79814,0.04979
572.83377,0.04831
571.86940,0.04674
570.90504,0.04510
569.94067,0.04335
568.97630,0.04149
568.01194,0.03977
567.04757,0.03829
566.08320,0.03675
565.11884,0.03512
564.15447,0.03363
563.19010,0.03241
562.22574,0.03139
561.26137,0.03039
560.29700,0.02918
559.33264,0.02768
558.36827,0.02638
557.40390,0.02572
556.43954,0.02520
555.47517,0.02432
554.51081,0.02330
553.54644,0.02253
552.58207,0.02187
551.61771,0.02110
550.65334,0.02031
549.68897,0.01986
548.72461,0.01990
547.76024,0.01990
546.79587,0.01939
545.83151,0.01880
544.86714,0.01845
543.90277,0.01799
542.93841,0.01735
541.97404,0.01687
541.00967,0.01650
540.04531,0.01612
539.08094,0.01600
538.11657,0.01598
537.15221,0.01577
536.18784,0.01565
535.22347,0.01553
534.25911,0.01508
533.29474,0.01450
532.33037,0.01426
531.36601,0.01419
530.40164,0.01384
529.43727,0.01326
528.47291,0.01268
527.50854,0.01270
526.54417,0.01338
525.57981,0.01362
524.61544,0.01298
523.65107,0.01224
522.68671,0.01194
521.72234,0.01180
520.75797,0.01175
519.79361,0.01138
518.82924,0.01071
517.86487,0.01067
516.90051,0.01138
515.93614,0.01166
514.97177,0.01093
514.00741,0.01036
513.04304,0.01032
512.07867,0.01022
511.11431,0.01016
510.14994,0.01045
509.18557,0.01091
508.22121,0.01081
507.25684,0.01033
506.29247,0.01003
505.32811,0.00988
504.36374,0.00994
503.39937,0.01038
502.43501,0.01090
501.47064,0.01055
500.50627,0.00961
499.54191,0.00908
498.57754,0.00877
497.61317,0.00873
496.64881,0.00891
495.68444,0.00900
494.72007,0.00908
493.75571,0.00959
492.79134,0.01012
491.82698,0.01002
490.86261,0.00993
489.89824,0.01009
488.93388,0.01038
487.96951,0.01016
487.00514,0.00916
486.04078,0.00856
485.07641,0.00881
484.11204,0.00934
483.14768,0.00912
482.18331,0.00848
481.21894,0.00829
480.25458,0.00819
479.29021,0.00816
478.32584,0.00831
477.36148,0.00888
476.39711,0.00960
475.43274,0.00954
474.46838,0.00913
473.50401,0.01061
472.53964,0.01314
471.57528,0.01337
470.61091,0.01165
469.64654,0.01157
468.68218,0.01228
467.71781,0.01157
466.75344,0.00986
465.78908,0.00897
464.82471,0.00965
463.86034,0.01100
462.89598,0.01181
461.93161,0.01234
460.96724,0.01241
460.00288,0.01201
459.03851,0.01405
458.07414,0.01607
457.10978,0.01431
456.14541,0.01053
455.18104,0.00980
454.21668,0.01065
453.25231,0.00965
452.28794,0.00867
451.32358,0.00967
450.35921,0.01091
449.39484,0.00987
448.43048,0.00771
447.46611,0.00749
446.50174,0.00874
445.53738,0.01046
444.57301,0.01212
443.60864,0.01218
442.64428,0.00982
441.67991,0.00663
440.71554,0.00511
439.75118,0.00478
438.78681,0.00502
437.82244,0.00611
436.85808,0.00716
435.89371,0.00767
434.92934,0.00796
433.96498,0.00759
433.00061,0.00563
432.03624,0.00475
431.07188,0.00599
430.10751,0.00663
429.14315,0.00599
428.17878,0.00501
427.21441,0.00523
426.25005,0.00597
425.28568,0.00474
424.32131,0.00269
423.35695,0.00283
422.39258,0.00386
421.42821,0.00337
420.46385,0.01306
419.49948,0.03253
418.53511,0.03543
417.57075,0.01750
416.60638,0.00091
415.64201,0.00008
414.67765,0.00204
413.71328,0.00192
412.74891,0.00197
411.78455,0.00331
410.82018,0.00369
409.85581,0.00194
408.89145,0.00025
407.92708,0.00018
406.96271,0.00009
405.99835,0.00055
405.03398,0.00234
404.06961,0.00254
403.10525,0.00102
402.14088,-0.00025
401.17651,0.00008
400.21215,0.00008
399.24778,0.00008
