1900.76660,0.00046
1899.80223,0.00046
1898.83787,0.00046
1897.87350,0.00046
1896.90913,0.00045
1895.94477,0.00045
1894.98040,0.00045
1894.01603,0.00045
1893.05167,0.00045
1892.08730,0.00045
1891.12293,0.00045
1890.15857,0.00044
1889.19420,0.00044
1888.22983,0.00044
1887.26547,0.00044
1886.30110,0.00044
1885.33673,0.00044
1884.37237,0.00043
1883.40800,0.00043
1882.44364,0.00043
1881.47927,0.00043
1880.51490,0.00034
1879.55054,0.00043
1878.58617,0.00063
1877.62180,0.00067
1876.65744,0.00056
1875.69307,0.00048
1874.72870,0.00040
1873.76434,0.00029
1872.79997,0.00024
1871.83560,0.00027
1870.87124,0.00034
1869.90687,0.00050
1868.94250,0.00056
1867.97814,0.00043
1867.01377,0.00022
1866.04940,0.00008
1865.08504,0.00006
1864.12067,0.00013
1863.15630,0.00031
1862.19194,0.00058
1861.22757,0.00093
1860.26320,0.00111
1859.29884,0.00106
1858.33447,0.00104
1857.37010,0.00114
1856.40574,0.00135
1855.44137,0.00158
1854.47700,0.00164
1853.51264,0.00151
1852.54827,0.00141
1851.58390,0.00141
1850.61954,0.00143
1849.65517,0.00176
1848.69080,0.00230
1847.72644,0.00255
1846.76207,0.00233
1845.79770,0.00211
1844.83334,0.00230
1843.86897,0.00261
1842.90460,0.00283
1841.94024,0.00303
1840.97587,0.00346
1840.01150,0.00383
1839.04714,0.00399
1838.08277,0.00408
1837.11840,0.00419
1836.15404,0.00441
1835.18967,0.00464
1834.22530,0.00493
1833.26094,0.00523
1832.29657,0.00554
1831.33220,0.00573
1830.36784,0.00567
1829.40347,0.00581
1828.43910,0.00626
1827.47474,0.00682
1826.51037,0.00712
1825.54600,0.00739
1824.58164,0.00776
1823.61727,0.00804
1822.65290,0.00822
1821.68854,0.00838
1820.72417,0.00871
1819.75981,0.00911
1818.79544,0.00942
1817.83107,0.00961
1816.86671,0.00974
1815.90234,0.00991
1814.93797,0.01010
1813.97361,0.01034
1813.00924,0.01055
1812.04487,0.01080
1811.08051,0.01107
1810.11614,0.01128
1809.15177,0.01140
1808.18741,0.01143
1807.22304,0.01151
1806.25867,0.01166
1805.29431,0.01186
1804.32994,0.01201
1803.36557,0.01205
1802.40121,0.01209
1801.43684,0.01222
1800.47247,0.01250
1799.50811,0.01273
1798.54374,0.01292
1797.57937,0.01311
1796.61501,0.01328
1795.65064,0.01340
1794.68627,0.01353
1793.72191,0.01379
1792.75754,0.01396
1791.79317,0.01416
1790.82881,0.01448
1789.86444,0.01486
1788.90007,0.01512
1787.93571,0.01535
1786.97134,0.01574
1786.00697,0.01612
1785.04261,0.01648
1784.07824,0.01679
1783.11387,0.01717
1782.14951,0.01767
1781.18514,0.01821
1780.22077,0.01880
1779.25641,0.01928
1778.29204,0.01975
1777.32767,0.02031
1776.36331,0.02101
1775.39894,0.02169
1774.43457,0.02232
1773.47021,0.02308
1772.50584,0.02382
1771.54147,0.02454
1770.57711,0.02529
1769.61274,0.02618
1768.64837,0.02706
1767.68401,0.02792
1766.71964,0.02881
1765.75527,0.02971
1764.79091,0.03070
1763.82654,0.03165
1762.86217,0.03270
1761.89781,0.03381
1760.93344,0.03491
1759.96907,0.03597
1759.00471,0.03700
1758.04034,0.03816
1757.07597,0.03933
1756.11161,0.04056
1755.14724,0.04172
1754.18288,0.04290
1753.21851,0.04414
1752.25414,0.04523
1751.28978,0.04625
1750.32541,0.04727
1749.36104,0.04854
1748.39668,0.04979
1747.43231,0.05098
1746.46794,0.05214
1745.50358,0.05322
1744.53921,0.05420
1743.57484,0.05509
1742.61048,0.05611
1741.64611,0.05713
1740.68174,0.05804
1739.71738,0.05883
1738.75301,0.05956
1737.78864,0.06035
1736.82428,0.06106
1735.85991,0.06187
1734.89554,0.06246
1733.93118,0.06285
1732.96681,0.06318
1732.00244,0.06373
1731.03808,0.06433
1730.07371,0.06469
1729.10934,0.06492
1728.14498,0.06504
1727.18061,0.06521
1726.21624,0.06528
1725.25188,0.06526
1724.28751,0.06519
1723.32314,0.06504
1722.35878,0.06486
1721.39441,0.06460
1720.43004,0.06440
1719.46568,0.06417
1718.50131,0.06358
1717.53694,0.06290
1716.57258,0.06246
1715.60821,0.06221
1714.64384,0.06158
1713.67948,0.06099
1712.71511,0.06055
1711.75074,0.06011
1710.78638,0.05944
1709.82201,0.05867
1708.85764,0.05806
1707.89328,0.05750
1706.92891,0.05689
1705.96454,0.05609
1705.00018,0.05526
1704.03581,0.05441
1703.07144,0.05377
1702.10708,0.05370
1701.14271,0.05288
1700.17834,0.05160
1699.21398,0.05058
1698.24961,0.05076
1697.28524,0.05086
1696.32088,0.05025
1695.35651,0.04935
1694.39214,0.04884
1693.42778,0.04899
1692.46341,0.04895
1691.49905,0.04884
1690.53468,0.04871
1689.57031,0.04872
1688.60595,0.04877
1687.64158,0.04888
1686.67721,0.04923
1685.71285,0.04950
1684.74848,0.04980
1683.78411,0.05010
1682.81975,0.05087
1681.85538,0.05176
1680.89101,0.05270
1679.92665,0.05375
1678.96228,0.05489
1677.99791,0.05620
1677.03355,0.05739
1676.06918,0.05888
1675.10481,0.06048
1674.14045,0.06214
1673.17608,0.06381
1672.21171,0.06559
1671.24735,0.06754
1670.28298,0.06942
1669.31861,0.07164
1668.35425,0.07387
1667.38988,0.07617
1666.42551,0.07853
1665.46115,0.08101
1664.49678,0.08353
1663.53241,0.08595
1662.56805,0.08865
1661.60368,0.09130
1660.63931,0.09404
1659.67495,0.09676
1658.71058,0.09947
1657.74621,0.10217
1656.78185,0.10478
1655.81748,0.10758
1654.85311,0.10998
1653.88875,0.11278
1652.92438,0.11587
1651.96001,0.11907
1650.99565,0.12174
1650.03128,0.12427
1649.06691,0.12698
1648.10255,0.12945
1647.13818,0.13213
1646.17381,0.13479
1645.20945,0.13752
1644.24508,0.13994
1643.28071,0.14236
1642.31635,0.14482
1641.35198,0.14711
1640.38761,0.14951
1639.42325,0.15178
1638.45888,0.15400
1637.49451,0.15592
1636.53015,0.15767
1635.56578,0.15941
1634.60141,0.16119
1633.63705,0.16313
1632.67268,0.16479
1631.70831,0.16637
1630.74395,0.16755
1629.77958,0.16872
1628.81522,0.16968
1627.85085,0.17033
1626.88648,0.17084
1625.92212,0.17131
1624.95775,0.17196
1623.99338,0.17160
1623.02902,0.17099
1622.06465,0.17042
1621.10028,0.17024
1620.13592,0.16963
1619.17155,0.16871
1618.20718,0.16815
1617.24282,0.16610
1616.27845,0.16371
1615.31408,0.16162
1614.34972,0.16063
1613.38535,0.15896
1612.42098,0.15687
1611.45662,0.15499
1610.49225,0.15273
1609.52788,0.15048
1608.56352,0.14810
1607.59915,0.14606
1606.63478,0.14385
1605.67042,0.14159
1604.70605,0.13958
1603.74168,0.13740
1602.77732,0.13536
1601.81295,0.13321
1600.84858,0.13140
1599.88422,0.12950
1598.91985,0.12757
1597.95548,0.12577
1596.99112,0.12394
1596.02675,0.12233
1595.06238,0.12043
1594.09802,0.11869
1593.13365,0.11689
1592.16928,0.11519
1591.20492,0.11348
1590.24055,0.11160
1589.27618,0.10991
1588.31182,0.10809
1587.34745,0.10649
1586.38308,0.10471
1585.41872,0.10294
1584.45435,0.10117
1583.48998,0.09932
1582.52562,0.09759
1581.56125,0.09566
1580.59688,0.09394
1579.63252,0.09209
1578.66815,0.09051
1577.70378,0.08924
1576.73942,0.08678
1575.77505,0.08402
1574.81068,0.08172
1573.84632,0.08065
1572.88195,0.07893
1571.91758,0.07734
1570.95322,0.07594
1569.98885,0.07369
1569.02448,0.07126
1568.06012,0.06929
1567.09575,0.06830
1566.13139,0.06680
1565.16702,0.06497
1564.20265,0.06308
1563.23829,0.06149
1562.27392,0.06050
1561.30955,0.05950
1560.34519,0.05830
1559.38082,0.05613
1558.41645,0.05359
1557.45209,0.05169
1556.48772,0.05088
1555.52335,0.05048
1554.55899,0.04911
1553.59462,0.04755
1552.63025,0.04624
1551.66589,0.04550
1550.70152,0.04439
1549.73715,0.04301
1548.77279,0.04185
1547.80842,0.04099
1546.84405,0.04045
1545.87969,0.03943
1544.91532,0.03824
1543.95095,0.03723
1542.98659,0.03638
1542.02222,0.03565
1541.05785,0.03483
1540.09349,0.03399
1539.12912,0.03263
1538.16475,0.03176
1537.20039,0.03146
1536.23602,0.03122
1535.27165,0.03086
1534.30729,0.03009
1533.34292,0.02932
1532.37855,0.02858
1531.41419,0.02823
1530.44982,0.02784
1529.48545,0.02749
1528.52109,0.02713
1527.55672,0.02666
1526.59235,0.02637
1525.62799,0.02593
1524.66362,0.02560
1523.69925,0.02543
1522.73489,0.02527
1521.77052,0.02502
1520.80615,0.02462
1519.84179,0.02458
1518.87742,0.02466
1517.91305,0.02475
1516.94869,0.02452
1515.98432,0.02437
1515.01995,0.02451
1514.05559,0.02465
1513.09122,0.02479
1512.12685,0.02480
1511.16249,0.02489
1510.19812,0.02499
1509.23375,0.02512
1508.26939,0.02538
1507.30502,0.02526
1506.34065,0.02510
1505.37629,0.02506
1504.41192,0.02560
1503.44756,0.02607
1502.48319,0.02642
1501.51882,0.02664
1500.55446,0.02685
1499.59009,0.02710
1498.62572,0.02729
1497.66136,0.02761
1496.69699,0.02792
1495.73262,0.02828
1494.76826,0.02873
1493.80389,0.02924
1492.83952,0.02981
1491.87516,0.03034
1490.91079,0.03084
1489.94642,0.03125
1488.98206,0.03180
1488.01769,0.03246
1487.05332,0.03309
1486.08896,0.03380
1485.12459,0.03454
1484.16022,0.03534
1483.19586,0.03612
1482.23149,0.03697
1481.26712,0.03785
1480.30276,0.03871
1479.33839,0.03965
1478.37402,0.04064
1477.40966,0.04171
1476.44529,0.04272
1475.48092,0.04377
1474.51656,0.04497
1473.55219,0.04617
1472.58782,0.04742
1471.62346,0.04859
1470.65909,0.04984
1469.69472,0.05102
1468.73036,0.05227
1467.76599,0.05350
1466.80162,0.05461
1465.83726,0.05567
1464.87289,0.05661
1463.90852,0.05766
1462.94416,0.05871
1461.97979,0.05984
1461.01542,0.06096
1460.05106,0.06207
1459.08669,0.06318
1458.12232,0.06398
1457.15796,0.06487
1456.19359,0.06584
1455.22922,0.06697
1454.26486,0.06798
1453.30049,0.06902
1452.33612,0.07014
1451.37176,0.07116
1450.40739,0.07219
1449.44302,0.07324
1448.47866,0.07442
1447.51429,0.07557
1446.54992,0.07672
1445.58556,0.07784
1444.62119,0.07893
1443.65682,0.08016
1442.69246,0.08141
1441.72809,0.08267
1440.76373,0.08389
1439.79936,0.08514
1438.83499,0.08642
1437.87063,0.08759
1436.90626,0.08881
1435.94189,0.09005
1434.97753,0.09141
1434.01316,0.09269
1433.04879,0.09394
1432.08443,0.09514
1431.12006,0.09627
1430.15569,0.09741
1429.19133,0.09853
1428.22696,0.09974
1427.26259,0.10097
1426.29823,0.10231
1425.33386,0.10369
1424.36949,0.10508
1423.40513,0.10656
1422.44076,0.10812
1421.47639,0.10982
1420.51203,0.11144
1419.54766,0.11312
1418.58329,0.11494
1417.61893,0.11696
1416.65456,0.11899
1415.69019,0.12091
1414.72583,0.12288
1413.76146,0.12490
1412.79709,0.12697
1411.83273,0.12895
1410.86836,0.13093
1409.90399,0.13287
1408.93963,0.13474
1407.97526,0.13657
1407.01089,0.13824
1406.04653,0.13980
1405.08216,0.14131
1404.11779,0.14287
1403.15343,0.14430
1402.18906,0.14550
1401.22469,0.14662
1400.26033,0.14759
1399.29596,0.14836
1398.33159,0.14894
1397.36723,0.14946
1396.40286,0.14980
1395.43849,0.14946
1394.47413,0.14892
1393.50976,0.14886
1392.54539,0.14939
1391.58103,0.14964
1390.61666,0.14935
1389.65229,0.14895
1388.68793,0.14853
1387.72356,0.14790
1386.75919,0.14711
1385.79483,0.14650
1384.83046,0.14602
1383.86609,0.14541
1382.90173,0.14478
1381.93736,0.14422
1380.97299,0.14371
1380.00863,0.14315
1379.04426,0.14263
1378.07989,0.14219
1377.11553,0.14180
1376.15116,0.14136
1375.18680,0.14077
1374.22243,0.14016
1373.25806,0.13965
1372.29370,0.13930
1371.32933,0.13900
1370.36496,0.13872
1369.40060,0.13842
1368.43623,0.13802
1367.47186,0.13765
1366.50750,0.13732
1365.54313,0.13704
1364.57876,0.13673
1363.61440,0.13636
1362.65003,0.13600
1361.68566,0.13570
1360.72130,0.13543
1359.75693,0.13510
1358.79256,0.13478
1357.82820,0.13440
1356.86383,0.13396
1355.89946,0.13345
1354.93510,0.13289
1353.97073,0.13226
1353.00636,0.13152
1352.04200,0.13075
1351.07763,0.13001
1350.11326,0.12926
1349.14890,0.12846
1348.18453,0.12757
1347.22016,0.12664
1346.25580,0.12568
1345.29143,0.12477
1344.32706,0.12385
1343.36270,0.12291
1342.39833,0.12205
1341.43396,0.12121
1340.46960,0.12028
1339.50523,0.11932
1338.54086,0.11852
1337.57650,0.11786
1336.61213,0.11719
1335.64776,0.11653
1334.68340,0.11593
1333.71903,0.11538
1332.75466,0.11483
1331.79030,0.11432
1330.82593,0.11386
1329.86156,0.11345
1328.89720,0.11306
1327.93283,0.11266
1326.96846,0.11223
1326.00410,0.11178
1325.03973,0.11140
1324.07536,0.11102
1323.11100,0.11062
1322.14663,0.11023
1321.18226,0.10983
1320.21790,0.10937
1319.25353,0.10887
1318.28916,0.10837
1317.32480,0.10785
1316.36043,0.10729
1315.39606,0.10670
1314.43170,0.10609
1313.46733,0.10539
1312.50297,0.10463
1311.53860,0.10391
1310.57423,0.10327
1309.60987,0.10265
1308.64550,0.10198
1307.68113,0.10130
1306.71677,0.10064
1305.75240,0.09993
1304.78803,0.09918
1303.82367,0.09842
1302.85930,0.09772
1301.89493,0.09708
1300.93057,0.09649
1299.96620,0.09590
1299.00183,0.09534
1298.03747,0.09487
1297.07310,0.09443
1296.10873,0.09396
1295.14437,0.09354
1294.18000,0.09323
1293.21563,0.09296
1292.25127,0.09263
1291.28690,0.09228
1290.32253,0.09198
1289.35817,0.09171
1288.39380,0.09143
1287.42943,0.09116
1286.46507,0.09086
1285.50070,0.09051
1284.53633,0.09016
1283.57197,0.08989
1282.60760,0.08966
1281.64323,0.08937
1280.67887,0.08905
1279.71450,0.08875
1278.75013,0.08851
1277.78577,0.08832
1276.82140,0.08812
1275.85703,0.08790
1274.89267,0.08769
1273.92830,0.08756
1272.96393,0.08741
1271.99957,0.08717
1271.03520,0.08695
1270.07083,0.08680
1269.10647,0.08664
1268.14210,0.08647
1267.17773,0.08634
1266.21337,0.08625
1265.24900,0.08619
1264.28463,0.08617
1263.32027,0.08609
1262.35590,0.08599
1261.39153,0.08591
1260.42717,0.08588
1259.46280,0.08588
1258.49843,0.08590
1257.53407,0.08596
1256.56970,0.08604
1255.60533,0.08614
1254.64097,0.08622
1253.67660,0.08624
1252.71223,0.08622
1251.74787,0.08623
1250.78350,0.08626
1249.81914,0.08631
1248.85477,0.08643
1247.89040,0.08657
1246.92604,0.08670
1245.96167,0.08681
1244.99730,0.08688
1244.03294,0.08688
1243.06857,0.08674
1242.10420,0.08649
1241.13984,0.08647
1240.17547,0.08678
1239.21110,0.08708
1238.24674,0.08710
1237.28237,0.08699
1236.31800,0.08692
1235.35364,0.08687
1234.38927,0.08681
1233.42490,0.08674
1232.46054,0.08664
1231.49617,0.08658
1230.53180,0.08649
1229.56744,0.08636
1228.60307,0.08619
1227.63870,0.08604
1226.67434,0.08590
1225.70997,0.08576
1224.74560,0.08556
1223.78124,0.08531
1222.81687,0.08509
1221.85250,0.08494
1220.88814,0.08474
1219.92377,0.08441
1218.95940,0.08403
1217.99504,0.08367
1217.03067,0.08333
1216.06630,0.08302
1215.10194,0.08274
1214.13757,0.08243
1213.17320,0.08204
1212.20884,0.08158
1211.24447,0.08114
1210.28010,0.08076
1209.31574,0.08044
1208.35137,0.08008
1207.38700,0.07965
1206.42264,0.07920
1205.45827,0.07878
1204.49390,0.07836
1203.52954,0.07793
1202.56517,0.07749
1201.60080,0.07704
1200.63644,0.07658
1199.67207,0.07613
1198.70770,0.07567
1197.74334,0.07520
1196.77897,0.07474
1195.81460,0.07431
1194.85024,0.07395
1193.88587,0.07360
1192.92150,0.07320
1191.95714,0.07282
1190.99277,0.07255
1190.02840,0.07232
1189.06404,0.07209
1188.09967,0.07189
1187.13531,0.07174
1186.17094,0.07154
1185.20657,0.07129
1184.24221,0.07107
1183.27784,0.07096
1182.31347,0.07092
1181.34911,0.07085
1180.38474,0.07070
1179.42037,0.07053
1178.45601,0.07043
1177.49164,0.07039
1176.52727,0.07033
1175.56291,0.07029
1174.59854,0.07028
1173.63417,0.07033
1172.66981,0.07040
1171.70544,0.07047
1170.74107,0.07052
1169.77671,0.07053
1168.81234,0.07055
1167.84797,0.07061
1166.88361,0.07068
1165.91924,0.07071
1164.95487,0.07074
1163.99051,0.07083
1163.02614,0.07095
1162.06177,0.07098
1161.09741,0.07096
1160.13304,0.07107
1159.16867,0.07132
1158.20431,0.07154
1157.23994,0.07167
1156.27557,0.07178
1155.31121,0.07196
1154.34684,0.07215
1153.38247,0.07231
1152.41811,0.07247
1151.45374,0.07270
1150.48937,0.07297
1149.52501,0.07324
1148.56064,0.07356
1147.59627,0.07394
1146.63191,0.07430
1145.66754,0.07465
1144.70317,0.07508
1143.73881,0.07557
1142.77444,0.07605
1141.81007,0.07650
1140.84571,0.07701
1139.88134,0.07762
1138.91697,0.07821
1137.95261,0.07867
1136.98824,0.07908
1136.02387,0.07961
1135.05951,0.08025
1134.09514,0.08086
1133.13077,0.08144
1132.16641,0.08208
1131.20204,0.08271
1130.23767,0.08323
1129.27331,0.08373
1128.30894,0.08431
1127.34457,0.08496
1126.38021,0.08552
1125.41584,0.08602
1124.45148,0.08653
1123.48711,0.08695
1122.52274,0.08728
1121.55838,0.08766
1120.59401,0.08812
1119.62964,0.08854
1118.66528,0.08885
1117.70091,0.08907
1116.73654,0.08927
1115.77218,0.08956
1114.80781,0.08995
1113.84344,0.09029
1112.87908,0.09054
1111.91471,0.09076
1110.95034,0.09101
1109.98598,0.09136
1109.02161,0.09169
1108.05724,0.09203
1107.09288,0.09258
1106.12851,0.09329
1105.16414,0.09388
1104.19978,0.09432
1103.23541,0.09489
1102.27104,0.09565
1101.30668,0.09642
1100.34231,0.09722
1099.37794,0.09811
1098.41358,0.09901
1097.44921,0.09985
1096.48484,0.10064
1095.52048,0.10138
1094.55611,0.10214
1093.59174,0.10311
1092.62738,0.10418
1091.66301,0.10495
1090.69864,0.10538
1089.73428,0.10583
1088.76991,0.10648
1087.80554,0.10714
1086.84118,0.10768
1085.87681,0.10818
1084.91244,0.10863
1083.94808,0.10905
1082.98371,0.10953
1082.01934,0.10995
1081.05498,0.11018
1080.09061,0.11038
1079.12624,0.11075
1078.16188,0.11115
1077.19751,0.11144
1076.23314,0.11169
1075.26878,0.11196
1074.30441,0.11220
1073.34004,0.11235
1072.37568,0.11247
1071.41131,0.11257
1070.44694,0.11256
1069.48258,0.11228
1068.51821,0.11160
1067.55384,0.11057
1066.58948,0.10961
1065.62511,0.10923
1064.66074,0.10937
1063.69638,0.10951
1062.73201,0.10932
1061.76765,0.10876
1060.80328,0.10798
1059.83891,0.10699
1058.87455,0.10577
1057.91018,0.10461
1056.94581,0.10379
1055.98145,0.10323
1055.01708,0.10261
1054.05271,0.10183
1053.08835,0.10097
1052.12398,0.10010
1051.15961,0.09925
1050.19525,0.09837
1049.23088,0.09747
1048.26651,0.09650
1047.30215,0.09548
1046.33778,0.09446
1045.37341,0.09347
1044.40905,0.09249
1043.44468,0.09152
1042.48031,0.09051
1041.51595,0.08947
1040.55158,0.08841
1039.58721,0.08727
1038.62285,0.08601
1037.65848,0.08482
1036.69411,0.08389
1035.72975,0.08306
1034.76538,0.08205
1033.80101,0.08088
1032.83665,0.07973
1031.87228,0.07869
1030.90791,0.07773
1029.94355,0.07651
1028.97918,0.07480
1028.01481,0.07308
1027.05045,0.07201
1026.08608,0.07147
1025.12171,0.07080
1024.15735,0.06986
1023.19298,0.06882
1022.22861,0.06776
1021.26425,0.06679
1020.29988,0.06593
1019.33551,0.06512
1018.37115,0.06430
1017.40678,0.06352
1016.44241,0.06277
1015.47805,0.06207
1014.51368,0.06146
1013.54931,0.06095
1012.58495,0.06051
1011.62058,0.06009
1010.65621,0.05972
1009.69185,0.05939
1008.72748,0.05906
1007.76311,0.05877
1006.79875,0.05862
1005.83438,0.05858
1004.87001,0.05850
1003.90565,0.05837
1002.94128,0.05827
1001.97691,0.05817
1001.01255,0.05809
1000.04818,0.05812
999.08382,0.05826
998.11945,0.05835
997.15508,0.05833
996.19072,0.05827
995.22635,0.05812
994.26198,0.05791
993.29762,0.05779
992.33325,0.05782
991.36888,0.05787
990.40452,0.05783
989.44015,0.05773
988.47578,0.05755
987.51142,0.05742
986.54705,0.05738
985.58268,0.05737
984.61832,0.05732
983.65395,0.05726
982.68958,0.05717
981.72522,0.05697
980.76085,0.05676
979.79648,0.05666
978.83212,0.05656
977.86775,0.05628
976.90338,0.05585
975.93902,0.05550
974.97465,0.05517
974.01028,0.05475
973.04592,0.05426
972.08155,0.05378
971.11718,0.05325
970.15282,0.05258
969.18845,0.05187
968.22408,0.05125
967.25972,0.05073
966.29535,0.05025
965.33098,0.04972
964.36662,0.04918
963.40225,0.04865
962.43788,0.04811
961.47352,0.04752
960.50915,0.04691
959.54478,0.04631
958.58042,0.04574
957.61605,0.04521
956.65168,0.04466
955.68732,0.04411
954.72295,0.04358
953.75858,0.04299
952.79422,0.04231
951.82985,0.04161
950.86548,0.04089
949.90112,0.04017
948.93675,0.03956
947.97238,0.03906
947.00802,0.03849
946.04365,0.03775
945.07928,0.03697
944.11492,0.03633
943.15055,0.03579
942.18618,0.03525
941.22182,0.03472
940.25745,0.03423
939.29308,0.03382
938.32872,0.03344
937.36435,0.03298
936.39998,0.03251
935.43562,0.03218
934.47125,0.03193
933.50689,0.03167
932.54252,0.03143
931.57815,0.03122
930.61379,0.03104
929.64942,0.03092
928.68505,0.03081
927.72069,0.03070
926.75632,0.03066
925.79195,0.03061
924.82759,0.03047
923.86322,0.03036
922.89885,0.03043
921.93449,0.03055
920.97012,0.03057
920.00575,0.03050
919.04139,0.03043
918.07702,0.03038
917.11265,0.03029
916.14829,0.03010
915.18392,0.02980
914.21955,0.02948
913.25519,0.02921
912.29082,0.02898
911.32645,0.02865
910.36209,0.02811
909.39772,0.02744
908.43335,0.02684
907.46899,0.02635
906.50462,0.02584
905.54025,0.02517
904.57589,0.02438
903.61152,0.02357
902.64715,0.02290
901.68279,0.02246
900.71842,0.02207
899.75405,0.02160
898.78969,0.02115
897.82532,0.02072
896.86095,0.02024
895.89659,0.01979
894.93222,0.01948
893.96785,0.01924
893.00349,0.01892
892.03912,0.01856
891.07475,0.01831
890.11039,0.01822
889.14602,0.01813
888.18165,0.01794
887.21729,0.01775
886.25292,0.01754
885.28855,0.01732
884.32419,0.01716
883.35982,0.01703
882.39545,0.01687
881.43109,0.01666
880.46672,0.01646
879.50235,0.01644
878.53799,0.01661
877.57362,0.01674
876.60925,0.01676
875.64489,0.01685
874.68052,0.01697
873.71615,0.01695
872.75179,0.01695
871.78742,0.01711
870.82306,0.01726
869.85869,0.01730
868.89432,0.01736
867.92996,0.01752
866.96559,0.01777
866.00122,0.01800
865.03686,0.01813
864.07249,0.01814
863.10812,0.01827
862.14376,0.01863
861.17939,0.01897
860.21502,0.01917
859.25066,0.01931
858.28629,0.01946
857.32192,0.01967
856.35756,0.01993
855.39319,0.02017
854.42882,0.02035
853.46446,0.02049
852.50009,0.02058
851.53572,0.02066
850.57136,0.02080
849.60699,0.02097
848.64262,0.02108
847.67826,0.02122
846.71389,0.02143
845.74952,0.02160
844.78516,0.02167
843.82079,0.02171
842.85642,0.02182
841.89206,0.02197
840.92769,0.02204
839.96332,0.02207
838.99896,0.02216
838.03459,0.02226
837.07022,0.02225
836.10586,0.02216
835.14149,0.02209
834.17712,0.02209
833.21276,0.02217
832.24839,0.02232
831.28402,0.02252
830.31966,0.02271
829.35529,0.02277
828.39092,0.02265
827.42656,0.02245
826.46219,0.02234
825.49782,0.02239
824.53346,0.02243
823.56909,0.02232
822.60472,0.02208
821.64036,0.02185
820.67599,0.02175
819.71162,0.02171
818.74726,0.02163
817.78289,0.02154
816.81852,0.02158
815.85416,0.02161
814.88979,0.02145
813.92542,0.02118
812.96106,0.02106
811.99669,0.02117
811.03232,0.02127
810.06796,0.02119
809.10359,0.02104
808.13923,0.02095
807.17486,0.02087
806.21049,0.02079
805.24613,0.02084
804.28176,0.02101
803.31739,0.02106
802.35303,0.02092
801.38866,0.02084
800.42429,0.02093
799.45993,0.02100
798.49556,0.02099
797.53119,0.02094
796.56683,0.02094
795.60246,0.02098
794.63809,0.02099
793.67373,0.02097
792.70936,0.02090
791.74499,0.02083
790.78063,0.02080
789.81626,0.02078
788.85189,0.02078
787.88753,0.02079
786.92316,0.02080
785.95879,0.02078
784.99443,0.02074
784.03006,0.02068
783.06569,0.02062
782.10133,0.02061
781.13696,0.02063
780.17259,0.02062
779.20823,0.02052
778.24386,0.02042
777.27949,0.02044
776.31513,0.02054
775.35076,0.02066
774.38639,0.02075
773.42203,0.02079
772.45766,0.02074
771.49329,0.02065
770.52893,0.02060
769.56456,0.02061
768.60019,0.02061
767.63583,0.02060
766.67146,0.02067
765.70709,0.02078
764.74273,0.02083
763.77836,0.02084
762.81399,0.02090
761.84963,0.02100
760.88526,0.02109
759.92089,0.02122
758.95653,0.02138
757.99216,0.02163
757.02779,0.02198
756.06343,0.02222
755.09906,0.02223
754.13469,0.02218
753.17033,0.02233
752.20596,0.02261
751.24159,0.02293
750.27723,0.02320
749.31286,0.02334
748.34849,0.02344
747.38413,0.02359
746.41976,0.02385
745.45540,0.02413
744.49103,0.02437
743.52666,0.02455
742.56230,0.02467
741.59793,0.02486
740.63356,0.02511
739.66920,0.02536
738.70483,0.02552
737.74046,0.02562
736.77610,0.02577
735.81173,0.02596
734.84736,0.02612
733.88300,0.02625
732.91863,0.02641
731.95426,0.02664
730.98990,0.02686
730.02553,0.02706
729.06116,0.02728
728.09680,0.02759
727.13243,0.02795
726.16806,0.02829
725.20370,0.02862
724.23933,0.02894
723.27496,0.02919
722.31060,0.02944
721.34623,0.02982
720.38186,0.03019
719.41750,0.03043
718.45313,0.03064
717.48876,0.03097
716.52440,0.03137
715.56003,0.03176
714.59566,0.03209
713.63130,0.03230
712.66693,0.03253
711.70256,0.03280
710.73820,0.03307
709.77383,0.03337
708.80946,0.03369
707.84510,0.03394
706.88073,0.03404
705.91636,0.03411
704.95200,0.03429
703.98763,0.03455
703.02326,0.03480
702.05890,0.03491
701.09453,0.03490
700.13016,0.03479
699.16580,0.03470
698.20143,0.03478
697.23706,0.03497
696.27270,0.03506
695.30833,0.03493
694.34396,0.03472
693.37960,0.03460
692.41523,0.03461
691.45086,0.03466
690.48650,0.03466
689.52213,0.03460
688.55776,0.03452
687.59340,0.03440
686.62903,0.03428
685.66466,0.03426
684.70030,0.03427
683.73593,0.03411
682.77157,0.03381
681.80720,0.03353
680.84283,0.03337
679.87847,0.03329
678.91410,0.03326
677.94973,0.03318
676.98537,0.03301
676.02100,0.03294
675.05663,0.03294
674.09227,0.03279
673.12790,0.03253
672.16353,0.03249
671.19917,0.03264
670.23480,0.03271
669.27043,0.03264
668.30607,0.03251
667.34170,0.03255
666.37733,0.03281
665.41297,0.03311
664.44860,0.03326
663.48423,0.03338
662.51987,0.03355
661.55550,0.03371
660.59113,0.03378
659.62677,0.03380
658.66240,0.03385
657.69803,0.03399
656.73367,0.03410
655.76930,0.03415
654.80493,0.03419
653.84057,0.03438
652.87620,0.03468
651.91183,0.03487
650.94747,0.03492
649.98310,0.03495
649.01873,0.03505
648.05437,0.03517
647.09000,0.03527
646.12563,0.03539
645.16127,0.03557
644.19690,0.03580
643.23253,0.03601
642.26817,0.03623
641.30380,0.03643
640.33943,0.03667
639.37507,0.03693
638.41070,0.03711
637.44633,0.03725
636.48197,0.03739
635.51760,0.03760
634.55323,0.03783
633.58887,0.03802
632.62450,0.03818
631.66013,0.03839
630.69577,0.03870
629.73140,0.03892
628.76703,0.03909
627.80267,0.03931
626.83830,0.03939
625.87393,0.03935
624.90957,0.03951
623.94520,0.03980
622.98083,0.03982
622.01647,0.03978
621.05210,0.04001
620.08774,0.04033
619.12337,0.04056
618.15900,0.04072
617.19464,0.04078
616.23027,0.04072
615.26590,0.04073
614.30154,0.04084
613.33717,0.04085
612.37280,0.04068
611.40844,0.04055
610.44407,0.04063
609.47970,0.04077
608.51534,0.04078
607.55097,0.04069
606.58660,0.04048
605.62224,0.04014
604.65787,0.03993
603.69350,0.04010
602.72914,0.04041
601.76477,0.04045
600.80040,0.04013
599.83604,0.03988
598.87167,0.03981
597.90730,0.03970
596.94294,0.03948
595.97857,0.03937
595.01420,0.03952
594.04984,0.03971
593.08547,0.03986
592.12110,0.03981
591.15674,0.03950
590.19237,0.03933
589.22800,0.03949
588.26364,0.03969
587.29927,0.03969
586.33490,0.03956
585.37054,0.03940
584.40617,0.03930
583.44180,0.03945
582.47744,0.03973
581.51307,0.03998
580.54870,0.03996
579.58434,0.03965
578.61997,0.03944
577.65560,0.03949
576.69124,0.03963
575.72687,0.03974
574.76250,0.03987
573.79814,0.04002
572.83377,0.04003
571.86940,0.03973
570.90504,0.03925
569.94067,0.03915
568.97630,0.03950
568.01194,0.03972
567.04757,0.03966
566.08320,0.03961
565.11884,0.03972
564.15447,0.03977
563.19010,0.03963
562.22574,0.03946
561.26137,0.03945
560.29700,0.03954
559.33264,0.03949
558.36827,0.03929
557.40390,0.03908
556.43954,0.03888
555.47517,0.03862
554.51081,0.03846
553.54644,0.03864
552.58207,0.03889
551.61771,0.03889
550.65334,0.03871
549.68897,0.03856
548.72461,0.03853
547.76024,0.03865
546.79587,0.03881
545.83151,0.03885
544.86714,0.03886
543.90277,0.03883
542.93841,0.03861
541.97404,0.03851
541.00967,0.03881
540.04531,0.03905
539.08094,0.03872
538.11657,0.03836
537.15221,0.03857
536.18784,0.03902
535.22347,0.03931
534.25911,0.03937
533.29474,0.03915
532.33037,0.03874
531.36601,0.03841
530.40164,0.03838
529.43727,0.03856
528.47291,0.03862
527.50854,0.03856
526.54417,0.03869
525.57981,0.03888
524.61544,0.03882
523.65107,0.03866
522.68671,0.03842
521.72234,0.03786
520.75797,0.03738
519.79361,0.03748
518.82924,0.03783
517.86487,0.03788
516.90051,0.03759
515.93614,0.03719
514.97177,0.03697
514.00741,0.03706
513.04304,0.03696
512.07867,0.03655
511.11431,0.03639
510.14994,0.03647
509.18557,0.03648
508.22121,0.03656
507.25684,0.03674
506.29247,0.03656
505.32811,0.03611
504.36374,0.03584
503.39937,0.03552
502.43501,0.03532
501.47064,0.03558
500.50627,0.03607
499.54191,0.03626
498.57754,0.03633
497.61317,0.03679
496.64881,0.03699
495.68444,0.03631
494.72007,0.03549
493.75571,0.03539
492.79134,0.03569
491.82698,0.03550
490.86261,0.03501
489.89824,0.03482
488.93388,0.03506
487.96951,0.03522
487.00514,0.03477
486.04078,0.03422
485.07641,0.03420
484.11204,0.03457
483.14768,0.03445
482.18331,0.03384
481.21894,0.03345
480.25458,0.03335
479.29021,0.03302
478.32584,0.03222
477.36148,0.03169
476.39711,0.03171
475.43274,0.03196
474.46838,0.03193
473.50401,0.03132
472.53964,0.03130
471.57528,0.03201
470.61091,0.03260
469.64654,0.03227
468.68218,0.03140
467.71781,0.03066
466.75344,0.03028
465.78908,0.03088
464.82471,0.03165
463.86034,0.03151
462.89598,0.03121
461.93161,0.03163
460.96724,0.03249
460.00288,0.03224
459.03851,0.03025
458.07414,0.02789
457.10978,0.02690
456.14541,0.02829
455.18104,0.03038
454.21668,0.03142
453.25231,0.03090
452.28794,0.02971
451.32358,0.02932
450.35921,0.02987
449.39484,0.03060
448.43048,0.03053
447.46611,0.02977
446.50174,0.02885
445.53738,0.02780
444.57301,0.02702
443.60864,0.02701
442.64428,0.02747
441.67991,0.02739
440.71554,0.02706
439.75118,0.02736
438.78681,0.02766
437.82244,0.02729
436.85808,0.02647
435.89371,0.02586
434.92934,0.02568
433.96498,0.02555
433.00061,0.02510
432.03624,0.02461
431.07188,0.02492
430.10751,0.02593
429.14315,0.02682
428.17878,0.02679
427.21441,0.02549
426.25005,0.02334
425.28568,0.02151
424.32131,0.02135
423.35695,0.02315
422.39258,0.02492
421.42821,0.02510
420.46385,0.02331
419.49948,0.02015
418.53511,0.01835
417.57075,0.01928
416.60638,0.02118
415.64201,0.02199
414.67765,0.02223
413.71328,0.02136
412.74891,0.01937
411.78455,0.01795
410.82018,0.01758
409.85581,0.01703
408.89145,0.01706
407.92708,0.01869
406.96271,0.02029
405.99835,0.01965
405.03398,0.01732
404.06961,0.01578
403.10525,0.01528
402.14088,0.01425
401.17651,0.01061
400.21215,0.01061
399.24778,0.01061
