1900.7888,-0.021707188686613428
1899.82442,-0.02156584250912441
1898.86005,-0.02168451244374979
1897.89567,-0.021383198068405843
1896.93129,-0.02108189962463554
1895.96691,-0.021380617132718036
1895.00253,-0.02138935061293254
1894.03816,-0.021308100305829518
1893.07378,-0.021346865790979372
1892.1094,-0.02116564730909854
1891.14502,-0.021514444880466208
1890.18065,-0.02208325874496702
1889.21627,-0.02227208848350222
1888.25189,-0.02212093433612323
1887.28751,-0.02165979632310925
1886.32313,-0.021608674464739415
1885.35876,-0.02164756900006136
1884.39438,-0.02149647951164938
1883.43,-0.021555406238718884
1882.46562,-0.021374349201549056
1881.50124,-0.02120330842041908
1880.53687,-0.02129228413353426
1879.57249,-0.021291275925152446
1878.60811,-0.021370284033647775
1877.64373,-0.021409308479299477
1876.67935,-0.0212983492823867
1875.71498,-0.0213174066802672
1874.7506,-0.02135648025889287
1873.78622,-0.02116557025579139
1872.82184,-0.021034676691241934
1871.85747,-0.021233799801920458
1870.89309,-0.02147293917514162
1869.92871,-0.02149209504775211
1868.96433,-0.021551267440031156
1867.99995,-0.021840456372257913
1867.03558,-0.021639662080251296
1866.0712,-0.020968884153038964
1865.10682,-0.02087812282661168
1864.14244,-0.02103737812124859
1863.17806,-0.020866650057228882
1862.21369,-0.020645938869509203
1861.24931,-0.020625244148840732
1860.28493,-0.020794566130352972
1859.32055,-0.0209639048343251
1858.35618,-0.021163260495020153
1857.3918,-0.021102632704575658
1856.42742,-0.020862021697428366
1855.46304,-0.020981427493857473
1854.49866,-0.02110085011414215
1853.53429,-0.021030289791673693
1852.56991,-0.02096974612033206
1851.60553,-0.020799219333683325
1850.64115,-0.020578709452006655
1849.67677,-0.020438216495581224
1848.7124,-0.020227740696921355
1847.74802,-0.020147281651659937
1846.78364,-0.020156839592487062
1845.81926,-0.019856414539681955
1844.85488,-0.019646006513523766
1843.89051,-0.019605615745644567
1842.92613,-0.019685241833440698
1841.96175,-0.019844885008721058
1840.99737,-0.019714545291764855
1840.033,-0.019424222913494535
1839.06862,-0.019173917472724816
1838.10424,-0.019113629200555822
1837.13986,-0.01902335811726675
1836.17548,-0.018833104243136792
1835.21111,-0.018812867808196715
1834.24673,-0.018582648413043523
1833.28235,-0.01842244628788678
1832.31797,-0.01833226145300562
1831.35359,-0.018162093928679263
1830.38922,-0.018301943944041478
1829.42484,-0.018371811101482186
1828.46046,-0.01823169563031502
1827.49608,-0.01800159755081912
1826.53171,-0.017991517091406936
1825.56733,-0.0180414538559103
1824.60295,-0.01761140807292224
1823.63857,-0.01735137976272201
1822.67419,-0.017361368945588686
1821.70982,-0.017341375849028375
1820.74544,-0.01722140007868464
1819.78106,-0.017151441862245174
1818.81668,-0.01727150121998918
1817.8523,-0.017311578172195835
1816.88793,-0.017291672945459455
1815.92355,-0.017171785147245953
1814.95917,-0.017001915004332416
1813.99479,-0.01686206253699804
1813.03041,-0.016602227765521976
1812.06604,-0.0164424109155816
1811.10166,-0.01646261159647571
1810.13728,-0.016602830034065437
1809.1729,-0.016513066248630026
1808.20853,-0.01631332046510945
1807.24415,-0.016273592294276315
1806.27977,-0.016283881961255367
1805.31539,-0.016264189486325742
1804.35101,-0.01603451488976658
1803.38664,-0.015844858395591584
1802.42226,-0.015895219616425087
1801.45788,-0.015845598776466387
1800.4935,-0.015645995895994726
1799.52912,-0.015446410995289213
1798.56475,-0.015326844297431856
1797.60037,-0.015197295416909291
1796.63599,-0.015057764576990228
1795.67161,-0.01497825179795386
1794.70724,-0.014838757302132993
1793.74286,-0.014659280705511729
1792.77848,-0.014689822230610439
1791.8141,-0.014770381897708351
1790.84972,-0.01449095972708462
1789.88535,-0.014051555940130966
1788.92097,-0.01363217015471263
1787.95659,-0.013272802592410003
1786.99221,-0.013023453273502211
1786.02783,-0.01284412221826848
1785.06346,-0.012734809647154108
1784.09908,-0.01249551517991608
1783.1347,-0.01217623903718941
1782.17032,-0.0119669812392533
1781.20594,-0.011727741806386888
1780.24157,-0.011368520958083883
1779.27719,-0.010909318316003502
1778.31281,-0.010520134099830145
1777.34843,-0.010180968329843026
1776.38406,-0.009841821224770703
1775.41968,-0.009382692407801763
1774.4553,-0.008783582097856346
1773.49092,-0.008534490315213653
1772.52654,-0.008535417080152888
1771.56217,-0.00820636261044147
1770.59779,-0.007507326531189185
1769.63341,-0.006838309060356096
1768.66903,-0.006479310218221401
1767.70465,-0.006090330025064317
1766.74028,-0.005501368697685929
1765.7759,-0.005072425863127603
1764.81152,-0.004813501738384199
1763.84714,-0.004354596343734862
1762.88276,-0.0039157096994588
1761.91839,-0.0035668420213854912
1760.95401,-0.002997992938498506
1759.98963,-0.0025891626668221313
1759.02525,-0.0023403512266355064
1758.06088,-0.0019415588329870226
1757.0965,-0.001552785116421665
1756.13212,-0.0011440302921833512
1755.16774,-0.0007452943805513201
1754.20336,-0.0004365774018047358
1753.23899,-4.787957001091414e-05
1752.27461,0.00017079948232412434
1751.31023,0.0002894595409363848
1750.34585,0.0008081005855467144
1749.38147,0.0013467225958759405
1748.4171,0.0016653253588430478
1747.45272,0.001973909239970373
1746.48834,0.0022824740259792947
1745.52396,0.0025610196965905885
1744.55959,0.002759546039516114
1743.59521,0.002878053418693363
1742.63083,0.0030565416216356833
1741.66645,0.0032650106280638774
1740.70207,0.003273460417698784
1739.7377,0.0033518907792480512
1738.77332,0.003670302074658613
1737.80894,0.0038386940924385465
1736.84456,0.0039370668123086955
1735.88018,0.003895420213989864
1734.91581,0.0035537540871907747
1733.95143,0.0033120687918572894
1732.98705,0.003460364117497519
1732.02267,0.003788640043832267
1731.05829,0.003876896550582362
1730.09392,0.0037351334284628085
1729.12954,0.0036933510354079657
1728.16516,0.003741549161931132
1727.20078,0.003779727787753137
1726.23641,0.0036478867043978486
1725.27203,0.0033860262681827402
1724.30765,0.0032241462704291624
1723.34327,0.0031022466908579294
1722.37889,0.0029303275091898395
1721.41452,0.002718388517964576
1720.45014,0.0025164300714690807
1719.48576,0.0022444519620394288
1718.52138,0.0016024541693964445
1717.557,0.0010504366732609488
1716.59263,0.0011183992671935927
1715.62825,0.0011363423034403825
1714.66387,0.0008842655753573125
1713.69949,0.000732169062665225
1712.73512,0.0005800525597454281
1711.77074,0.00032791641720346376
1710.80636,-1.4239570784835287e-05
1709.84198,-0.000426415424498644
1708.8776,-0.0006986111642171833
1707.91323,-0.0009008269945286057
1706.94885,-0.0013430625668873208
1705.98447,-0.0018453180860880242
1705.02009,-0.002137593572409946
1704.05571,-0.002359889046132241
1703.09134,-0.002492204710807369
1702.12696,-0.0026845402199601603
1701.16258,-0.003496895777350656
1700.1982,-0.004259271403258019
1699.23382,-0.004051667117961427
1698.26945,-0.003834083123972362
1697.30507,-0.004266519076896555
1696.34069,-0.005168975179454166
1695.37631,-0.0056814514519243214
1694.41194,-0.005433948095981855
1693.44756,-0.005406464768904981
1692.48318,-0.005749001672577969
1691.5188,-0.006101558827280029
1690.55442,-0.006404136253290296
1689.59005,-0.006686734151233192
1688.62567,-0.006969352180486749
1687.66129,-0.007171990541885859
1686.69691,-0.007454649255709697
1685.73253,-0.008147328342237442
1684.76816,-0.008880028001037751
1683.80378,-0.008942747893599098
1682.8394,-0.00869548821970166
1681.87502,-0.008668248999624636
1680.91065,-0.008831030432088313
1679.94627,-0.009013832180277043
1678.98189,-0.009116654443123498
1678.01751,-0.009219497240906857
1677.05313,-0.009482360593906322
1676.08876,-0.010045244699776953
1675.12438,-0.010438149223832474
1674.16,-0.01014107436394139
1673.19562,-0.009924020140382905
1672.23124,-0.010116986573436196
1671.26687,-0.010329973859685884
1670.30249,-0.010552981666585519
1669.33811,-0.010826010190934258
1668.37373,-0.01082905945301127
1667.40935,-0.010682129473095735
1666.44498,-0.010645220446696552
1665.4806,-0.01069833204341767
1664.51622,-0.010791464458983546
1663.55184,-0.010894617713673393
1662.58747,-0.01098779200213175
1661.62309,-0.010840986995690423
1660.65871,-0.010644202889210357
1659.69433,-0.010517439702970748
1658.72995,-0.010430697457250747
1657.76558,-0.010483976345609804
1656.8012,-0.010397276041548949
1655.83682,-0.010300596738845043
1654.87244,-0.010423938457777282
1653.90806,-0.010947301218624812
1652.94369,-0.011440685213856626
1651.97931,-0.010744090119153595
1651.01493,-0.009807516127203195
1650.05055,-0.009470963258284615
1649.08618,-0.009434431703990678
1648.1218,-0.00950792114175368
1647.15742,-0.00953143176338582
1646.19304,-0.00948496358916627
1645.22866,-0.009158516639374212
1644.26429,-0.008672091104502594
1643.29991,-0.00834568666418245
1642.33553,-0.008129303509127106
1641.37115,-0.007892941659615751
1640.40677,-0.007546601135927575
1639.4424,-0.007140282127450354
1638.47802,-0.0068139843160243685
1637.51364,-0.00653770789125889
1636.54926,-0.006421452873433056
1635.58488,-0.006315219282826107
1634.62051,-0.005629007307715372
1633.65613,-0.004792816632160912
1632.69175,-0.004196647444662624
1631.72737,-0.0036204997654996907
1630.763,-0.003154373782057393
1629.79862,-0.0026682691801791225
1628.83424,-0.0021421861474735376
1627.86986,-0.0015561247042197857
1626.90548,-0.0009500848706970738
1625.94111,-0.0004940668331708115
1624.97673,-1.8070279723086946e-05
1624.01235,0.0004679046031563078
1623.04797,0.001103857795188165
1622.08359,0.0018897892760933038
1621.11922,0.0025356988607314473
1620.15484,0.0030015868587713046
1619.19046,0.00342745308484714
1618.22608,0.0037732975186797746
1617.26171,0.003799119976032758
1616.29733,0.004174920764767928
1615.33295,0.005090699700422585
1614.36857,0.005766456762717517
1613.40419,0.006142191931373567
1612.43982,0.006527905023288885
1611.47544,0.006963596344057202
1610.51106,0.007349265710349287
1609.54668,0.007654913101885971
1608.5823,0.008100538498388113
1607.61793,0.008566141717893674
1606.65355,0.008941723063717738
1605.68917,0.009327282353669933
1604.72479,0.009792819567471037
1603.76041,0.010308334684841908
1602.79604,0.010763827524965644
1601.83166,0.011199298388868129
1600.86728,0.011714747095503089
1599.9029,0.01217017362459126
1598.93853,0.012585577796235689
1597.97415,0.013060959909623332
1597.00977,0.01348631978462693
1596.04539,0.013891657400967261
1595.08101,0.014356972738365184
1594.11664,0.014822265618078215
1593.15226,0.015247536336985293
1592.18788,0.01565278471611263
1591.2235,0.016028010735181036
1590.25912,0.016393214373911336
1589.29475,0.0167083954547209
1588.33037,0.016933554272170068
1587.36599,0.017128690648443787
1586.40161,0.01740380456326293
1585.43724,0.017708895839976466
1584.47286,0.017883964771282276
1583.50848,0.017979011180296156
1582.5441,0.018074035046738962
1581.57972,0.018119036350331477
1580.61535,0.01806401491559198
1579.65097,0.018018971032880873
1578.68659,0.018003904526482165
1577.72221,0.017828815376116677
1576.75783,0.017243703561505216
1575.79346,0.01678856890834063
1574.82908,0.016903411704635246
1573.8647,0.016908231775846563
1572.90032,0.016593029101695453
1571.93594,0.016167803661902694
1570.97157,0.015622555283340916
1570.00719,0.015077284251663922
1569.04281,0.014781990393507971
1568.07843,0.014486673688593868
1567.11406,0.014031333964741877
1566.14968,0.01354597150571138
1565.1853,0.01298058613908544
1564.22092,0.01247517784458485
1563.25654,0.012009746601930438
1562.29217,0.011524292240131712
1561.32779,0.010738815040570615
1560.36341,0.009583314832018353
1559.39903,0.008737791594195785
1558.43465,0.0081722453068237
1557.47028,0.00785667580010617
1556.5059,0.00778108335303708
1555.54152,0.0073454677955812064
1554.57714,0.006609829107459289
1553.61276,0.005984167268392224
1552.64839,0.005578482109783761
1551.68401,0.005082773908229393
1550.71963,0.004397042494892492
1549.75525,0.00381128784949393
1548.79088,0.003345509804401084
1547.8265,0.0028697086342830413
1546.86212,0.002383884171266018
1545.89774,0.0017680363950707961
1544.93336,0.0010821652854182268
1543.96899,0.0006762706758849241
1543.00461,0.00017035283872256224
1542.04023,-0.0005155883927344673
1541.07585,-0.0010515530387653488
1540.11147,-0.0017975411196492763
1539.1471,-0.002383552800595115
1538.18272,-0.0023595878117791402
1537.21834,-0.002335646318653503
1536.25396,-0.0026617283414974158
1535.28959,-0.003137834044544374
1534.32521,-0.003683963159920506
1533.36083,-0.004120115852103534
1532.39645,-0.004346292141372582
1531.43207,-0.0046424920480068604
1530.4677,-0.00497871573501589
1529.50332,-0.005314962936972714
1528.53894,-0.005691233817132074
1527.57456,-0.005937528395773162
1526.61018,-0.006173846693175139
1525.64581,-0.0065301888711183365
1524.68143,-0.006776554666633183
1523.71705,-0.006992944241746235
1522.75267,-0.007459357616736675
1521.78829,-0.007995794811883727
1520.82392,-0.008212255987733175
1519.85954,-0.008038740883783375
1518.89516,-0.007895249660827455
1517.93078,-0.008161782339144635
1516.96641,-0.008508339078289365
1516.00203,-0.008554919619741856
1515.03765,-0.008531524123304761
1514.07327,-0.008618152609257218
1513.10889,-0.008844805097878453
1512.14452,-0.009061481747478992
1511.18014,-0.009118182302025837
1510.21576,-0.009184906920078777
1509.25138,-0.009391655621916968
1508.287,-0.009728428427819603
1507.32263,-0.010115225494848022
1506.35825,-0.010362046569466599
1505.39387,-0.01020889180898693
1504.42949,-0.009795761233688173
1503.46512,-0.009622654999628596
1502.50074,-0.00968957285527796
1501.53636,-0.009676514956945569
1500.57198,-0.009713481324910622
1499.6076,-0.0098404719794523
1498.64323,-0.009897487075370158
1497.67885,-0.009894526363650236
1496.71447,-0.010081589999344227
1495.75009,-0.01010867800273136
1494.78571,-0.009705790394090794
1493.82134,-0.009502927326958156
1492.85696,-0.009530088554846293
1491.89258,-0.009587274231544048
1490.9282,-0.009684484377330584
1489.96382,-0.009601719012485098
1488.99945,-0.0094189782892741
1488.03507,-0.009256261963747639
1487.07069,-0.009143570188426459
1486.10631,-0.008940902983589759
1485.14194,-0.008738260500484936
1484.17756,-0.00863564249719942
1483.21318,-0.008433049125235702
1482.2488,-0.008270480404872944
1481.28442,-0.008177936356390358
1480.32005,-0.007995417129756675
1479.35567,-0.007752922485615571
1478.39129,-0.0074704525741919395
1477.42691,-0.007338007415764958
1476.46253,-0.007245587030613815
1475.49816,-0.00697319156742339
1474.53378,-0.006710820789404021
1473.5694,-0.006618474845497824
1472.60502,-0.0064961537559839605
1471.64065,-0.006063857668516415
1470.67627,-0.0055415863483664896
1469.71189,-0.005159339943446251
1468.74751,-0.004807118474034824
1467.78313,-0.004514921960411422
1466.81876,-0.004372750548936655
1465.85438,-0.004270604007467496
1464.89,-0.004088482482623695
1463.92562,-0.003706385994684369
1462.96124,-0.003264314563928769
1461.99687,-0.002932268335418875
1461.03249,-0.002590247079607838
1460.06811,-0.0023482509418178144
1459.10373,-0.0022362799423279733
1458.13935,-0.0021643341014175033
1457.17498,-0.0020624135628445756
1456.2106,-0.0015705180996689744
1455.24622,-0.000848647855910073
1454.28184,-0.000406802851847049
1453.31747,-7.498323019118625e-05
1452.35309,0.00031681123390482624
1451.38871,0.0006585803974676202
1450.42433,0.001040324240218063
1449.45995,0.0014220427418769332
1448.49558,0.0016537357610462988
1447.5312,0.0019654035199478392
1446.56682,0.002417045876920501
1445.60244,0.00285866281168512
1444.63806,0.003260254303962512
1443.67369,0.003591820213673269
1442.70931,0.003943360760403011
1441.74493,0.0043348758038082025
1440.78055,0.004676365323609655
1439.81618,0.0049678291807866565
1438.8518,0.005259267592808314
1437.88742,0.005470680420388896
1436.92304,0.005612067643249258
1435.95866,0.005993429241110196
1434.99429,0.006584765076279059
1434.02991,0.007066075363569901
1433.06553,0.007437359965023996
1432.10115,0.007748618860362211
1431.13677,0.007969852029305308
1430.1724,0.008141059335493944
1429.20802,0.008412240991076625
1428.24364,0.008733396859426909
1427.27926,0.008984526920265593
1426.31488,0.009235631153313523
1425.35051,0.009446709423549846
1424.38613,0.00963776194044702
1423.42175,0.009968788568716136
1422.45737,0.01032978928807797
1421.493,0.010690763964586333
1420.52862,0.010811712805565268
1419.56424,0.01073263567679962
1418.59986,0.011003532558010204
1417.63548,0.01140440342891784
1416.67111,0.01171524815692436
1415.70673,0.012036066946658791
1414.74235,0.012266859665252983
1413.77797,0.012397626292427688
1412.81359,0.012488366807903772
1411.84922,0.012619081080436356
1410.88484,0.012819769311948948
1409.92046,0.013060431370925593
1408.95608,0.013281067237087107
1407.99171,0.013411676780275009
1407.02733,0.013552260200240862
1406.06295,0.013682817366554259
1405.09857,0.013803348258936032
1404.13419,0.013933852857107007
1403.16982,0.014124331032271426
1402.20544,0.014284782981456426
1401.24106,0.014395208575593288
1400.27668,0.014515607794402835
1399.3123,0.014515980617605923
1398.34793,0.014596326917774766
1397.38355,0.014826646889201558
1396.41917,0.014986940404184551
1395.45479,0.015067207442444552
1394.49041,0.015147447983702392
1393.52604,0.015357661901903574
1392.56166,0.015477849388594839
1391.59728,0.015468010317446601
1390.6329,0.015608144668179696
1389.66853,0.015768252315842043
1388.70415,0.0158883334497764
1387.73977,0.015958387944754765
1386.77539,0.01611841578049797
1385.81101,0.01628841693672682
1384.84664,0.016338391289871954
1383.88226,0.01641833902651177
1382.91788,0.01658826002279991
1381.9535,0.016698154258457207
1380.98912,0.016728021713204463
1380.02475,0.016777862264860305
1379.06037,0.016937676097228224
1378.09599,0.0171074630878488
1377.13161,0.017227223216442822
1376.16724,0.017296956361943117
1375.20286,0.017316662705925634
1374.23848,0.01733634212704431
1373.2741,0.017405994605019973
1372.30972,0.017585620119573403
1371.34535,0.01763521855103485
1370.38097,0.017624790078186472
1369.41659,0.017724334581078582
1368.45221,0.017813852039431963
1367.48783,0.017943342432967455
1366.52346,0.018032805643417985
1365.55908,0.018132241846761363
1364.5947,0.018311650924449543
1363.63032,0.018351032856203334
1362.66594,0.01836038762174355
1361.70157,0.018469715104211054
1360.73719,0.018599015476768843
1359.77281,0.018648288622275744
1358.80843,0.0186575345204526
1357.84406,0.018796753055570353
1356.87968,0.01899594439853261
1355.9153,0.019135108433327455
1354.95092,0.019234245139675754
1353.98654,0.019243354497298304
1353.02217,0.019292436391883522
1352.05779,0.019401490991501152
1351.09341,0.019520518181555743
1350.12903,0.019709517941768062
1349.16465,0.019828490251858996
1348.20028,0.019887434998939565
1347.2359,0.020046352348235277
1346.27152,0.020185242186572222
1345.30714,0.02026410449367126
1344.34276,0.020352939249253202
1343.37839,0.020491746341857048
1342.41401,0.020730525933853466
1341.44963,0.020869277913495465
1340.48525,0.020958002260503858
1339.52088,0.02110669886456379
1338.5565,0.021265367885754505
1337.59212,0.02140400921347431
1336.62774,0.021542622827444
1335.66336,0.021681208707384395
1334.69899,0.02177976674441806
1333.73461,0.021958297095750492
1332.77023,0.022076799652216317
1331.80585,0.022115274393536347
1330.84147,0.022273721299431434
1329.8771,0.022452140262466724
1328.91272,0.022670531436963515
1327.94834,0.02286889471519804
1326.98396,0.023007230076891066
1326.01959,0.02321553741576575
1325.05521,0.023483816883828335
1324.09083,0.023762068374512155
1323.12645,0.023950291867538
1322.16207,0.0241884873426267
1321.1977,0.024496654694953476
1320.23332,0.024774794073621417
1319.26894,0.025042905373514904
1318.30456,0.02531098857435475
1317.34018,0.025659043655861774
1316.37581,0.025957070514668543
1315.41143,0.02627506929696452
1314.44705,0.02659303989909033
1313.48267,0.026850982300766837
1312.51829,0.02718889648171484
1311.55392,0.027536782340029528
1310.58954,0.027864640018976178
1309.62516,0.02826246941635699
1308.66078,0.02863027051189279
1307.69641,0.02891804320485268
1306.73203,0.029255787636154953
1305.76765,0.029593503704774912
1304.80327,0.029891191390433364
1303.83889,0.03023885067285116
1302.87452,0.030646481452769422
1301.91014,0.03101408386816336
1300.94576,0.03129165781947932
1299.98138,0.03156920328643807
1299.017,0.03188672024876048
1298.05263,0.03221420860866503
1297.08825,0.032611668501173294
1296.12387,0.033029099828207856
1295.15949,0.03336650256948959
1294.19512,0.03368387662842262
1293.23074,0.03402122213765803
1292.26636,0.03434853900030327
1291.30198,0.03467582719607913
1290.3376,0.034973086704706474
1289.37323,0.03523031743107624
1288.40885,0.03556751950486696
1287.44447,0.035984692830671836
1286.48009,0.036291837388211665
1285.51571,0.03649895315720729
1284.55134,0.03680604004404171
1283.58696,0.03714309817541041
1282.62258,0.037460127457397546
1281.6582,0.03782712786972399
1280.69382,0.03810409939211054
1279.72945,0.038331041932437526
1278.76507,0.038577955614406856
1277.80069,0.03882484034559894
1276.83631,0.03908169610573463
1275.87194,0.039328522803895954
1274.90756,0.03956532056138225
1273.94318,0.03978208928697484
1272.9788,0.04007882896039454
1272.01442,0.04036553956136217
1271.05005,0.04062222100046649
1270.08567,0.04083887339599443
1269.12129,0.04099549665823295
1268.15691,0.04120209076690291
1267.19253,0.04141865570172511
1266.22816,0.041555191374800377
1265.26378,0.04164169790139258
1264.2994,0.0417681751932997
1263.33502,0.04187462323024256
1262.37065,0.04196104192553542
1261.40627,0.04210743139201613
1260.44189,0.04223379154269524
1259.47751,0.04234012235729362
1258.51313,0.04239642381553203
1257.54876,0.042472695832246304
1256.58438,0.04264893851723227
1255.62,0.04279515178502097
1254.65562,0.04292133561533325
1253.69124,0.04299748998788991
1252.72687,0.04308361481905347
1251.76249,0.043289710215567365
1250.79811,0.04340577609348831
1249.83373,0.04340181243253714
1248.86935,0.04348781921243469
1247.90498,0.04362379635107547
1246.9406,0.04368974395213994
1245.97622,0.04367566193321579
1245.01184,0.04364155027402383
1244.04747,0.043577408893688024
1243.08309,0.04354323789343084
1242.11871,0.04357903719206854
1241.15433,0.04363480676932194
1240.18995,0.04362054660491185
1239.22558,0.043606256619503736
1238.2612,0.043581936911238114
1237.29682,0.0435075874004717
1236.33244,0.04355320806692531
1235.36806,0.04362879889031977
1234.40369,0.04354435979286721
1233.43931,0.04348989086961583
1232.47493,0.04349539204246797
1231.51055,0.04343086329114444
1230.54618,0.04335630453909857
1229.5818,0.04335171587889704
1228.61742,0.04339709723368251
1227.65304,0.04342244858317586
1226.68866,0.043297769907097855
1225.72429,0.04321306113045806
1224.75991,0.04313832234271174
1223.79553,0.04293355346855676
1222.83115,0.04274875448771394
1221.86677,0.04262392537990413
1220.9024,0.04246906607169827
1219.93802,0.04220417664942984
1218.97364,0.041899257039357055
1218.00926,0.041724307221200754
1217.04488,0.04159932717468176
1216.08051,0.04141431682793778
1215.11613,0.04116927626416987
1214.15175,0.040884205411201927
1213.18737,0.04062910424875482
1212.223,0.040463972706223345
1211.25862,0.04028881086429513
1210.29424,0.0401136186520504
1209.32986,0.03996839604920997
1208.36548,0.03972314303549469
1207.40111,0.03947785954187555
1206.43673,0.03930254564588885
1205.47235,0.03917720127818995
1204.50797,0.0390218264184997
1203.54359,0.038826421046538884
1202.57922,0.038680985094859996
1201.61484,0.03853551863783748
1200.65046,0.038390021607707076
1199.68608,0.03825449398418965
1198.72171,0.03814893570110653
1197.75733,0.03804334683029523
1196.79295,0.03786772730525953
1195.82857,0.0377520771057203
1194.86419,0.03761639621139834
1193.89982,0.03754068455770594
1192.93544,0.037514942213299804
1191.97106,0.03741916911327359
1191.00668,0.03730336523734819
1190.0423,0.03716753056524434
1189.07793,0.03712166503397056
1188.11355,0.03717576870899224
1187.14917,0.03709984152699819
1186.18479,0.03692388346770924
1185.22041,0.03684789451084619
1184.25604,0.036831874595018924
1183.29166,0.03674582378249108
1182.32728,0.03664974201155184
1181.3629,0.03656362926192201
1180.39853,0.03650748547349636
1179.43415,0.036491310705969573
1178.46977,0.03637510489891489
1177.50539,0.036208868032053115
1176.54101,0.036152600085105055
1175.57664,0.03616630099957638
1174.61226,0.03611997083194107
1173.64788,0.03609360952338217
1172.6835,0.03599721705362051
1171.71912,0.035880793402376904
1170.75475,0.03587433851277312
1169.79037,0.03577785243805194
1168.82599,0.035601335121011504
1167.86161,0.03548478654137262
1166.89724,0.03538820664355373
1165.93286,0.03526159547820511
1164.96848,0.035094952989420725
1164.0041,0.03505827915692139
1163.03972,0.035051573960427934
1162.07535,0.0350448373459844
1161.11097,0.034968069360990894
1160.14659,0.03470126995116596
1159.18221,0.03443443909623038
1158.21783,0.034157576775905016
1157.25346,0.03397068293786473
1156.28908,0.033803757626249015
1155.3247,0.033586800788406174
1154.36032,0.03345981240405704
1153.39594,0.03332279245292241
1152.43157,0.0331757408843133
1151.46719,0.03299865773909802
1150.50281,0.03280154296625992
1149.53843,0.03265439654551987
1148.57406,0.032467218427501485
1147.60968,0.03228000865044861
1146.6453,0.03209276716465642
1145.68092,0.03193549394984575
1144.71654,0.03181818898573742
1143.75217,0.03166085222460069
1142.78779,0.03150348370138922
1141.82341,0.03129608336804279
1140.85903,0.031088651204282183
1139.89465,0.031011187189828246
1138.93028,0.030963691278601047
1137.9659,0.030866163502253685
1137.00152,0.03067860381437565
1136.03714,0.03063101219468778
1135.07276,0.030653388622910893
1134.10839,0.030425733054621124
1133.14401,0.0301780455181605
1132.17963,0.03004032596877354
1131.21525,0.02996257438618105
1130.25088,0.029964790727287846
1129.2865,0.029996975017779468
1128.32212,0.02998912721422825
1127.35774,0.029801247296355013
1126.39336,0.029693335243880542
1125.42899,0.02978539101537525
1124.46461,0.029687414633194617
1123.50023,0.029429406055575452
1122.53585,0.029331365262238576
1121.57147,0.029303292232904815
1120.6071,0.029145186927815356
1119.64272,0.0291370493659851
1118.67834,0.02930887950732064
1117.71396,0.02936067733154281
1116.74959,0.029352442800233164
1115.78521,0.02926417592972666
1114.82083,0.029175876681269447
1113.85645,0.029147545034582376
1112.89207,0.029239180969386214
1111.9277,0.029450784448942863
1110.96332,0.02947235548622773
1109.99894,0.02940389404416624
1109.03456,0.029535400102479167
1108.07018,0.02969687364088737
1107.10581,0.029728314624338184
1106.14143,0.029699723062437122
1105.17705,0.02978109891979397
1104.21267,0.02985244217612959
1103.24829,0.029873752811164778
1102.28392,0.03002503079153772
1101.31954,0.03023627612347332
1100.35516,0.03030748877327119
1099.39078,0.030318668720652156
1098.42641,0.030489815933610748
1097.46203,0.03081093041565995
1096.49765,0.030902012134454926
1095.53327,0.03095306106971646
1094.56889,0.0311740772011654
1093.60452,0.03123506049849656
1092.64014,0.03127601096182345
1091.67576,0.03147692856050044
1090.71138,0.03169781327424831
1089.747,0.031908665082787904
1088.78263,0.03217948395751952
1087.81825,0.03246026989514676
1086.85387,0.0325810228667284
1085.88949,0.032701742851985266
1084.92512,0.03282242982368583
1083.96074,0.03303308377579817
1082.99636,0.03333370468074841
1082.03198,0.03355429251825737
1081.0676,0.033834847268045865
1080.10323,0.033965368904597365
1079.13885,0.03411585741845104
1078.17447,0.03437631278374695
1077.21009,0.03447673498020587
1076.24571,0.034597123987548675
1075.28134,0.03480747978197901
1074.31696,0.03492780235059667
1073.35258,0.03495809166926089
1072.3882,0.03520834771769246
1071.42382,0.03559857047561221
1070.45945,0.03574875992094931
1069.49507,0.03581891603735361
1068.53069,0.0360790388024088
1067.56631,0.03637912819583565
1066.60194,0.03660918419694752
1065.63756,0.03683920678662678
1064.67318,0.03707919594384039
1063.7088,0.0372991516483092
1062.74442,0.03739907387975401
1061.78005,0.03748896261922306
1060.81567,0.03774881784412998
1059.85129,0.037848639535175546
1058.88691,0.03788842767208066
1057.92253,0.03805818223456606
1056.95816,0.03814790320542025
1055.99378,0.03822759055857744
1055.0294,0.03825724427647764
1054.06502,0.038266864338841675
1053.10065,0.03819645072985392
1052.13627,0.03809600342065757
1051.17189,0.03785552239508773
1050.20751,0.03748500763286519
1049.24313,0.037204459113710814
1048.27876,0.036903876823558626
1047.31438,0.03664326073005357
1046.35,0.03640261081877934
1045.38562,0.03607192706945675
1044.42124,0.03561120946180661
1043.45687,0.03507045798351792
1042.49249,0.0345696725987268
1041.52811,0.03403885329477084
1040.56373,0.03359800005137083
1039.59935,0.03306711284824761
1038.63498,0.03226619167485033
1037.6706,0.03155523649179581
1036.70622,0.031024247288180762
1035.74184,0.030593224043725997
1034.77747,0.03002216674929259
1033.81309,0.02928107536267438
1032.84871,0.028579949874379118
1031.88433,0.027898790264127657
1030.91995,0.0273475965116408
1029.95558,0.026856368609549236
1028.9912,0.02624510651210861
1028.02682,0.02561381021159527
1027.06244,0.025072479687730034
1026.09806,0.024621114920233736
1025.13369,0.02425971590351196
1024.16931,0.023798282588271588
1023.20493,0.023176814968562803
1022.24055,0.022655313024106477
1021.27618,0.022273776750731847
1020.3118,0.021862206096299283
1019.34742,0.021340601056281813
1018.38304,0.020848961610400285
1017.41866,0.020307287738375493
1016.45429,0.019645579437821095
1015.48991,0.01935383665302977
1014.52553,0.01918205938125786
1013.56115,0.018700247602226217
1012.59677,0.01822840129565563
1011.6324,0.017916520460949367
1010.66802,0.01760460503882194
1009.70364,0.017332655028318267
1008.73926,0.017180670409159146
1007.77488,0.01695865116106543
1006.81051,0.01665659728523522
1005.84613,0.01637450871879434
1004.88175,0.01616238546258153
1003.91737,0.015970227496317616
1002.953,0.015698034822640414
1001.98862,0.015535807375797184
1001.02424,0.015443545158065522
1000.05986,0.01527124814916625
999.09548,0.01517891632882018
998.13111,0.015066549701469464
997.16673,0.014864148197753807
996.20235,0.01472171182175401
995.23797,0.014589240553190927
994.27359,0.014386734371785379
993.30922,0.01421419328378909
992.34484,0.014011617216223599
991.38046,0.013819006174978332
990.41608,0.01377636013977411
989.45171,0.013883679118314077
988.48733,0.013850963034717764
987.52295,0.013508211896325145
986.55857,0.013235425682857058
985.59419,0.013002604374034332
984.62982,0.012729747979379188
983.66544,0.012556856419374055
982.70106,0.01245392970317695
981.73668,0.012510967810508714
980.7723,0.012387970721090144
979.80793,0.012084938446267776
978.84355,0.011801870902876516
977.87917,0.01150876810189759
976.91479,0.011385630023051832
975.95041,0.011222456646060086
974.98604,0.010969247984098415
974.02166,0.010726003950343663
973.05728,0.01044272455760556
972.0929,0.010249409785604957
971.12853,0.01013605964898541
970.16415,0.009842674057989637
969.19977,0.009329253026894024
968.23539,0.008985796535419435
967.27101,0.00878230456328663
966.30664,0.00863877712697822
965.34226,0.008545214133059961
964.37788,0.00831161559764619
963.4135,0.007987981500457736
962.44912,0.007664311821215394
961.48475,0.007420606578246058
960.52037,0.0071768656744279485
959.55599,0.0069230891277186485
958.59161,0.006699276917838989
957.62724,0.006385429064595022
956.66286,0.006021545467907424
955.69848,0.005637626147212138
954.7341,0.005403671082229958
953.76972,0.005229680252681779
952.80535,0.004905653680227343
951.84097,0.004611591261080877
950.87659,0.004397493016531057
949.91221,0.004213358926298691
948.94783,0.004019188970104573
947.98346,0.0037549831714675935
947.01908,0.0034807414228849587
946.0547,0.0034364637475032406
945.09032,0.0033721501250433272
944.12594,0.002947800535226003
943.16157,0.002623415003434354
942.19719,0.0025689934184381785
941.23281,0.0023645358052472587
940.26843,0.0018900421435824322
939.30406,0.0015155124603220133
938.33968,0.0013309466412461668
937.3753,0.0010463447128590958
936.41092,0.0007117066548816275
935.44654,0.0004770324470345644
934.48217,0.0003123221180699326
933.51779,0.00012757555002154697
932.55341,-6.720722873373997e-05
931.58903,-9.202623847512359e-05
930.62465,-9.688149948175462e-05
929.66028,-0.0004117729811226739
928.6959,-0.0008767008051209502
927.73152,-0.001081664941221805
926.76714,-0.001136665409704432
925.80276,-0.001391702230848002
924.83839,-0.001716775372137283
923.87401,-0.0019118849590627762
922.90963,-0.002057030959486561
921.94525,-0.0022222133936877636
920.98088,-0.0024474322276400173
920.0165,-0.002772687589855327
919.05212,-0.0029479794466854142
918.08774,-0.0030433078184094464
917.12336,-0.003308672725306591
916.15899,-0.003494074131456762
915.19461,-0.0036195121691583038
914.23023,-0.00377498680287032
913.26585,-0.003920498052871937
912.30147,-0.003986045939442365
911.3371,-0.0038716304247625316
910.37272,-0.0038272516449276567
909.40834,-0.003982909562498943
908.44396,-0.004218604197755493
907.47959,-0.004244335511355363
906.51521,-0.004050103642438796
905.55083,-0.0038459085520448633
904.58645,-0.0037817502604527292
903.62207,-0.0040576287879415945
902.6577,-0.004443544093260976
901.69332,-0.004589496319367017
900.72894,-0.004485485425391358
899.76456,-0.004651511431613187
898.80018,-0.0048575743583116615
897.83581,-0.004523674162322688
896.87143,-0.004329810990428659
895.90705,-0.004445984799848604
894.94267,-0.004462195610861711
893.97829,-0.004558443443747173
893.01392,-0.004724728253421906
892.04954,-0.004681050190505159
891.08516,-0.004587409210298085
890.12078,-0.004573805333079842
889.15641,-0.004360238512228443
888.19203,-0.004316708901440147
887.22765,-0.0045432164544780135
886.26327,-0.004669761191621241
885.29889,-0.004626343133148955
884.33452,-0.00455296223051084
883.37014,-0.0048196186412588216
882.40576,-0.004866312317228658
881.44138,-0.0045630432786995245
880.477,-0.004459811545950598
879.51263,-0.004226617068497807
878.54825,-0.0040134600077594285
877.58387,-0.00396034031363858
876.61949,-0.0038172580064144285
875.65512,-0.0037642130340522217
874.69074,-0.0038712055610708035
873.72636,-0.003998235535823402
872.76198,-0.00404530297858921
871.7976,-0.00413240790964739
870.83323,-0.004159550275020074
869.86885,-0.003956730243111287
868.90447,-0.0038539477603321964
867.94009,-0.004001202846961996
866.97571,-0.004008495523279851
866.01134,-0.0038158257333595347
865.04696,-0.003643193649500734
864.08258,-0.003700599216167319
863.1182,-0.0038880424536384545
862.15382,-0.003705523382193321
861.18945,-0.003553041943952062
860.22507,-0.003710598315120592
859.26069,-0.0037281924382101816
858.29631,-0.0036758243334999996
857.33194,-0.0035334939415434946
856.36756,-0.0034212014416791364
855.40318,-0.0035289467748523123
854.4388,-0.003726729961342254
853.47442,-0.0038745510214280993
852.51005,-0.003852409893700212
851.54567,-0.0037603067614221802
850.58129,-0.003798241563577387
849.61691,-0.003906214320445009
848.65253,-0.003964225052304218
847.68816,-0.00401227369577703
846.72378,-0.0039503604380626695
845.7594,-0.0038584852161772376
844.79502,-0.003916648050399901
843.83065,-0.004024848875774187
842.86627,-0.00409308788265543
841.90189,-0.004101365006482088
840.93751,-0.004199680267533354
839.97313,-0.004378033686088384
839.00876,-0.00451642519521292
838.04438,-0.004594854989216843
837.08,-0.004563323001561884
836.11562,-0.004691829252527174
835.15124,-0.005040373762391942
834.18687,-0.005158956462238795
833.22249,-0.005057577550342751
832.25811,-0.005206236958183494
831.29373,-0.005554934706040182
830.32935,-0.005673670814192004
829.36498,-0.005502445211733278
828.4006,-0.005301258100914599
827.43622,-0.005450109411228393
826.47184,-0.005878999162953827
825.50747,-0.005997927283590748
824.54309,-0.0059368939785778285
823.57871,-0.006115899175813885
822.61433,-0.006274942895578062
821.64995,-0.006294025158149565
820.68558,-0.006483145889030449
819.7212,-0.006672305297653926
818.75682,-0.006711503309922019
817.79244,-0.006810739946113947
816.82806,-0.006930015226508851
815.86369,-0.006979329074605786
814.89931,-0.00700868170384298
813.93493,-0.007078073038120483
812.97055,-0.007117503097717484
812.00618,-0.0072569718045268
811.0418,-0.007436479375198236
810.07742,-0.007336025732026498
809.11304,-0.007295610895290752
808.14866,-0.007475234885270167
807.18429,-0.007714897621845074
806.21991,-0.007884599325689252
805.25553,-0.007974339917085918
804.29115,-0.008184119416314257
803.32677,-0.008293937843653454
802.3624,-0.00838379511696604
801.39802,-0.008493691460960281
800.43364,-0.008363626793902713
799.46926,-0.008333601136072483
798.50488,-0.008623614507748789
797.54051,-0.008763666824771137
796.57613,-0.008453758315892797
795.61175,-0.008333888897358324
794.64737,-0.008684058589446882
793.683,-0.008864267306375774
792.71862,-0.008894515280141846
791.75424,-0.008924802425368271
790.78986,-0.009035128762334227
789.82548,-0.009215494311318906
788.86111,-0.009255898984507113
787.89673,-0.009206343017959612
786.93235,-0.009056826324268137
785.96797,-0.009087348923711894
785.00359,-0.009357910836570026
784.03922,-0.009308511972989639
783.07484,-0.009279152573105902
782.11046,-0.009519832547473892
781.14608,-0.009520551916372771
780.18171,-0.009531310588315633
779.21733,-0.009602108806704791
778.25295,-0.009562946480462173
777.28857,-0.009743823629866963
776.32419,-0.009814740275198304
775.35982,-0.009715696322922109
774.39544,-0.009616692020534064
773.43106,-0.009517727274909911
772.46668,-0.009678802106328814
771.5023,-0.009819916535069972
770.53793,-0.009811070465546808
769.57355,-0.009892264149358877
768.60917,-0.010043497491330523
767.64479,-0.009884770511740922
766.68041,-0.009606083230869235
765.71604,-0.00975743555107119
764.75166,-0.009948827728060723
763.78728,-0.010090259664605514
762.8229,-0.010211731380984738
761.85853,-0.010303242777904113
760.89415,-0.010244794114376711
759.92977,-0.009846385291521056
758.96539,-0.009758016329616336
758.00101,-0.009849687248941717
757.03664,-0.009921397948135763
756.07226,-0.009943148690344829
755.10788,-0.009674939374621334
754.1435,-0.009766770021244445
753.17912,-0.00997864065049333
752.21475,-0.010090551158934126
751.25037,-0.010112501813857012
750.28599,-0.010054492512243003
749.32161,-0.00992652327437129
748.35724,-0.009518593995146235
747.39286,-0.00957070494518067
746.42848,-0.010052856019794706
745.4641,-0.010245047239267543
744.49972,-0.010137278623878337
743.53535,-0.009959550066449586
742.57097,-0.010001861841756839
741.60659,-0.010184213843039386
740.64221,-0.010296606090576407
739.67783,-0.010159038604647064
738.71346,-0.010071511275986697
737.74908,-0.010204024383544126
736.7847,-0.010076577818472508
735.82032,-0.009769171601051056
734.85594,-0.00952180575155892
733.89157,-0.009564480158639005
732.92719,-0.009657195105423962
731.96281,-0.009579950480975541
730.99843,-0.009792746305572954
730.03406,-0.009905582466181367
729.06968,-0.009728459249288016
728.1053,-0.009821376542277799
727.14092,-0.009764334365429922
726.17654,-0.00951733273902354
725.21217,-0.009560371547921977
724.24779,-0.009613451082815139
723.28341,-0.009606571228987136
722.31903,-0.009499732006717138
721.35465,-0.009362933436284311
720.39028,-0.009516175400444839
719.4259,-0.009569458194101876
718.46152,-0.009292781700433399
717.49714,-0.009126145939718618
716.53276,-0.009249550932236693
715.56839,-0.009152996558631409
714.60401,-0.009046483118029656
713.63963,-0.009110010491498073
712.67525,-0.009063578699315858
711.71088,-0.009217187620433082
710.7465,-0.009340837557363174
709.78212,-0.009354528389479963
708.81774,-0.009418260137062602
707.85336,-0.009192032820390293
706.88899,-0.008875846316291243
705.92461,-0.008809700931521558
704.96023,-0.008893596543334228
703.99585,-0.008797533172008445
703.03147,-0.008711510837823407
702.0671,-0.008885529415480167
701.10272,-0.008989589215988032
700.13834,-0.00905369011447394
699.17396,-0.008977832131217084
698.20959,-0.008822015139213067
697.24521,-0.008876239452881303
696.28083,-0.008910504945644063
695.31645,-0.00881481163778057
694.35207,-0.008679159549569965
693.3877,-0.008743548551871316
692.42332,-0.008827978963376101
691.45894,-0.008802450655371108
690.49456,-0.008936963648135544
689.53018,-0.00891151796194855
688.56581,-0.00872611346552734
687.60143,-0.008630750481846035
686.63705,-0.008555428880050633
685.67267,-0.008480148680420331
684.70829,-0.008464909903234286
683.74392,-0.008619712415062618
682.77954,-0.008844556543172573
681.81516,-0.008959442154564116
680.85078,-0.00885436926951641
679.88641,-0.008699337752878136
678.92203,-0.008764347935358609
677.95765,-0.008789399682237159
676.99327,-0.008854493013792965
676.02889,-0.008929627950305219
675.06452,-0.008954804354466044
674.10014,-0.009090022561296755
673.13576,-0.009085282433921246
672.17138,-0.008990583992618678
671.207,-0.008895927257668246
670.24263,-0.008811312089600218
669.27825,-0.008806738827758544
668.31387,-0.008952207333106324
667.34949,-0.009107717625922718
666.38512,-0.009023269565004814
665.42074,-0.00896886349316215
664.45636,-0.008874499269625434
663.49198,-0.008930176914673828
662.5276,-0.009005896448586528
661.56323,-0.008791657727989337
660.59885,-0.008787461100033284
659.63447,-0.00876330642177886
658.67009,-0.008649193713505234
657.70571,-0.00865512299549158
656.74134,-0.00860109412218718
655.77696,-0.008697107445095088
654.81258,-0.008753162819100303
653.8482,-0.008759260264481983
652.88382,-0.008745399801519345
651.91945,-0.008661581282479826
650.95507,-0.008607805063229036
649.99069,-0.008634070996471219
649.02631,-0.008800379102485559
648.06194,-0.008826729231790335
647.09756,-0.008683121743748703
646.13318,-0.008569556489316552
645.1688,-0.008676033488773063
644.20442,-0.008912552762397413
643.24005,-0.00881911415851662
642.27567,-0.008685718040875305
641.31129,-0.008702364258239136
640.34691,-0.008789052830887302
639.38253,-0.008805783779098998
638.41816,-0.008542556949004729
637.45378,-0.00857937270874106
636.4894,-0.008746230904878229
635.52502,-0.008553131557695402
634.56065,-0.008760074511562133
633.59627,-0.009187060138136117
632.63189,-0.00917408828222744
631.66751,-0.009161158964115283
630.70313,-0.009128272204078823
629.73876,-0.00893542784428162
628.77438,-0.008482626260792263
627.81,-0.007709867296215908
626.84562,-0.007327150970831767
625.88124,-0.006384477304919006
624.91687,-0.004071846138429952
623.95249,-0.0009292578518546035
622.98811,0.00015328771441205924
622.02373,-0.006184209459909162
621.05935,-0.00857174939509743
620.09498,-0.006509331928888612
619.1306,-0.0093769574462046
618.16622,-0.010644625785224966
617.20184,-0.009862336966228888
616.23747,-0.010040090825175256
615.27309,-0.010837887750539059
614.30871,-0.012555727578723738
613.34433,-0.013133610330008462
612.37995,-0.010961536024672446
611.41558,-0.006169504496448583
610.4512,-0.002507516138262736
609.48682,-0.004535570784293438
608.52244,-0.008883668454819901
607.55806,-0.00815180917012126
606.59369,-0.004289992761699266
605.62931,-0.005048219626941131
604.66493,-0.010076489597795217
603.70055,-0.013294802694540725
602.73618,-0.011433158746890625
601.7718,-0.008431558155808788
600.80742,-0.008300000751455677
599.84304,-0.008298486554110487
598.87866,-0.006647015584052396
597.91429,-0.005565587668753716
596.94991,-0.006034203213658565
595.98553,-0.0064128620466878394
595.02115,-0.0063615641881207274
594.05677,-0.0064603096582363795
593.0924,-0.006419098282261199
592.12802,-0.006247930470130114
591.16364,-0.006486806047519111
590.19926,-0.006815725034707398
589.23488,-0.006604687451974137
588.27051,-0.006343693122294533
587.30613,-0.0062127424601048364
586.34175,-0.005821835288830929
585.37737,-0.005890971628751948
584.413,-0.00631015130103843
583.44862,-0.006069374723735199
582.48424,-0.005838641718464238
581.51986,-0.006407952305504727
580.55548,-0.006407306505135865
579.59111,-0.005626704136267466
578.62673,-0.005616145621464647
577.66235,-0.005915630780089748
576.69797,-0.006295159632422026
575.73359,-0.006744732198740583
574.76922,-0.006634348295689416
573.80484,-0.006694008350364322
572.84046,-0.0069437121798628515
571.87608,-0.007213459804464209
570.91171,-0.007303251038995831
569.94733,-0.00711308631418571
568.98295,-0.007412965445315695
568.01857,-0.007502888452665002
567.05419,-0.007702855356512814
566.08982,-0.008372865969411183
565.12544,-0.008742920726637807
564.16106,-0.008873019441200239
563.19668,-0.008763162133377675
562.2323,-0.009213348823449263
561.26793,-0.010043579321686487
560.30355,-0.010063854067927196
559.33917,-0.0099241728728994
558.37479,-0.010074535756882282
557.41041,-0.009964942740155011
556.44604,-0.009915393630703179
555.48166,-0.009925888872935322
554.51728,-0.009686428275294645
553.5529,-0.00977701185806032
552.58853,-0.009867639427385465
551.62415,-0.009748311431342707
550.65977,-0.010189027676543658
549.69539,-0.010689788183267442
548.73101,-0.010490592971793257
547.76664,-0.010461441845978858
546.80226,-0.010672335258486577
545.83788,-0.010493273013633626
544.8735,-0.010754255131699218
543.90912,-0.01114528163296253
542.94475,-0.0109863523189807
541.98037,-0.010727467647016209
541.01599,-0.01084862741908673
540.05161,-0.011429831655471477
539.08724,-0.011001080155883337
538.12286,-0.010852373381272443
537.15848,-0.01186371113181308
536.1941,-0.011985093427784414
535.22972,-0.011636520289465643
534.26535,-0.01109799151425963
533.30097,-0.010649507567735535
532.33659,-0.011001068247758643
531.37221,-0.011622673574608146
530.40783,-0.012264323568563211
529.44346,-0.01231601802471139
528.47908,-0.012057757413251428
527.5147,-0.012119541529734365
526.55032,-0.012071370394439368
525.58594,-0.011743244027645608
524.62157,-0.011745162222120083
523.65719,-0.01215712545270161
522.69281,-0.012079133512621708
521.72843,-0.011411186422159568
520.76406,-0.011373283972221877
519.79968,-0.012445426641367163
518.8353,-0.013207614220967522
517.87092,-0.013449846731302131
516.90654,-0.013462124192650173
515.94217,-0.012914446393588318
514.97779,-0.01253681381733409
514.01341,-0.012209226252930631
513.04903,-0.012361683720657095
512.08465,-0.013084186240792661
511.12028,-0.013146733599578728
510.1559,-0.012979326284902344
509.19152,-0.013081964083472397
508.22714,-0.013344647015568055
507.26276,-0.013447375101468498
506.29839,-0.013470148125074563
505.33401,-0.01363296657895336
504.36963,-0.013475830247474278
503.40525,-0.013208739150916478
502.44088,-0.01339169307130457
501.4765,-0.013794692504957289
500.51212,-0.013747737234368625
499.54774,-0.01361082727981773
498.58336,-0.01351396266158382
497.61899,-0.012997143159341473
496.65461,-0.012780369274108375
495.69023,-0.01297364078602957
494.72585,-0.013386957715384222
493.76147,-0.013830320082451532
492.7971,-0.014073727664550818
491.83272,-0.01471718096740926
490.86834,-0.01507067976881768
489.90396,-0.014684224089055224
488.93959,-0.014857813703553269
487.97521,-0.01495144912181412
487.01083,-0.014225130119741428
486.04645,-0.014018856717614388
485.08207,-0.014292628935712183
484.1177,-0.014246446547101395
483.15332,-0.014210310066012782
482.18894,-0.014504219265986322
481.22456,-0.014528174167301185
480.26018,-0.014492174790236546
479.29581,-0.014866220905489037
478.33143,-0.015140313032028306
477.36705,-0.015374450941025415
476.40267,-0.015168634652759513
475.43829,-0.014822864187509797
474.47392,-0.014907139313597634
473.50954,-0.015081460554742139
472.54516,-0.01542582767974015
471.58078,-0.015430240708870849
470.61641,-0.015774699408551605
469.65203,-0.016029204306308678
468.68765,-0.015243755169035748
467.72327,-0.014898352017012007
466.75889,-0.015052994870516617
465.79452,-0.015327683493582295
464.83014,-0.015622418418503599
463.86576,-0.016057199409790585
462.90138,-0.01608202648772243
461.937,-0.015386899672578315
460.97263,-0.01544181872600097
460.00825,-0.01569678418506386
459.04387,-0.015421795811888107
458.07949,-0.015046853626752892
457.11512,-0.015391957389385182
456.15074,-0.016007107640689133
455.18636,-0.015802304140870936
454.22198,-0.015847546910209773
453.2576,-0.015972835968984855
452.29323,-0.01588817107452368
451.32885,-0.0164135527725282
450.36447,-0.01711898082080627
449.40009,-0.017354455239637072
448.43571,-0.017039976049299757
447.47134,-0.0166755430047172
446.50696,-0.01651115665639967
445.54258,-0.01665681675975135
444.5782,-0.017002523335051423
443.61382,-0.017248276402579095
442.64945,-0.01730407571484724
441.68507,-0.016989921827184958
440.72069,-0.01659581449258761
439.75631,-0.016781753731334316
438.79194,-0.017137739294006284
437.82756,-0.01698377173979524
436.86318,-0.017029850819765574
435.8988,-0.017415976554196508
434.93442,-0.017802148963367195
433.97005,-0.017948367795439422
433.00567,-0.017674633614442645
432.04129,-0.01796094616902296
431.07691,-0.01834730547945953
430.11253,-0.01829371156603154
429.14816,-0.01840016417447609
428.18378,-0.018356663873670943
427.2194,-0.018533210409838567
426.25502,-0.019089803803258122
425.29065,-0.01938644379772321
424.32627,-0.019363130965997767
423.36189,-0.019339865052361592
422.39751,-0.019316646077093866
421.43313,-0.01961347406047375
420.46876,-0.02019034874386072
419.50438,-0.020117270704885906
418.54,-0.01987423968539604
417.57562,-0.020051255705670297
416.61124,-0.020048318785987854
415.64687,-0.01998542866526879
414.68249,-0.020302585926021972
413.71811,-0.020549790307655767
412.75373,-0.020287041830449347
411.78935,-0.020374340514681913
410.82498,-0.02065168609682891
409.8606,-0.020629079164287405
408.89622,-0.020876519454022205
407.93184,-0.02117400698631248
406.96747,-0.021101541495674177
406.00309,-0.02109912357342253
405.03871,-0.02168675295456369
404.07433,-0.022134429659376828
403.10995,-0.022082153708141122
402.14558,-0.022269924832918432
401.1812,-0.02270774362993111
400.21682,-0.023075609831732284
399.25244,-0.022883523458601104
