1900.76660,0.00216
1899.80223,0.00212
1898.83787,0.00207
1897.87350,0.00203
1896.90913,0.00198
1895.94477,0.00194
1894.98040,0.00190
1894.01603,0.00185
1893.05167,0.00181
1892.08730,0.00176
1891.12293,0.00172
1890.15857,0.00168
1889.19420,0.00163
1888.22983,0.00159
1887.26547,0.00154
1886.30110,0.00150
1885.33673,0.00146
1884.37237,0.00141
1883.40800,0.00137
1882.44364,0.00132
1881.47927,0.00128
1880.51490,0.00118
1879.55054,0.00111
1878.58617,0.00115
1877.62180,0.00124
1876.65744,0.00134
1875.69307,0.00126
1874.72870,0.00113
1873.76434,0.00122
1872.79997,0.00146
1871.83560,0.00150
1870.87124,0.00109
1869.90687,0.00048
1868.94250,0.00016
1867.97814,0.00036
1867.01377,0.00080
1866.04940,0.00112
1865.08504,0.00135
1864.12067,0.00135
1863.15630,0.00137
1862.19194,0.00165
1861.22757,0.00192
1860.26320,0.00182
1859.29884,0.00160
1858.33447,0.00176
1857.37010,0.00206
1856.40574,0.00210
1855.44137,0.00196
1854.47700,0.00198
1853.51264,0.00223
1852.54827,0.00245
1851.58390,0.00245
1850.61954,0.00229
1849.65517,0.00224
1848.69080,0.00235
1847.72644,0.00259
1846.76207,0.00291
1845.79770,0.00287
1844.83334,0.00229
1843.86897,0.00211
1842.90460,0.00276
1841.94024,0.00355
1840.97587,0.00392
1840.01150,0.00415
1839.04714,0.00429
1838.08277,0.00426
1837.11840,0.00432
1836.15404,0.00461
1835.18967,0.00488
1834.22530,0.00516
1833.26094,0.00552
1832.29657,0.00591
1831.33220,0.00577
1830.36784,0.00512
1829.40347,0.00508
1828.43910,0.00596
1827.47474,0.00698
1826.51037,0.00701
1825.54600,0.00659
1824.58164,0.00669
1823.61727,0.00733
1822.65290,0.00790
1821.68854,0.00802
1820.72417,0.00810
1819.75981,0.00827
1818.79544,0.00842
1817.83107,0.00849
1816.86671,0.00856
1815.90234,0.00881
1814.93797,0.00904
1813.97361,0.00910
1813.00924,0.00910
1812.04487,0.00916
1811.08051,0.00922
1810.11614,0.00936
1809.15177,0.00966
1808.18741,0.00991
1807.22304,0.01005
1806.25867,0.01012
1805.29431,0.01031
1804.32994,0.01058
1803.36557,0.01061
1802.40121,0.01038
1801.43684,0.01022
1800.47247,0.01031
1799.50811,0.01056
1798.54374,0.01103
1797.57937,0.01142
1796.61501,0.01139
1795.65064,0.01137
1794.68627,0.01163
1793.72191,0.01163
1792.75754,0.01119
1791.79317,0.01109
1790.82881,0.01173
1789.86444,0.01270
1788.90007,0.01351
1787.93571,0.01402
1786.97134,0.01433
1786.00697,0.01446
1785.04261,0.01472
1784.07824,0.01523
1783.11387,0.01595
1782.14951,0.01641
1781.18514,0.01653
1780.22077,0.01685
1779.25641,0.01753
1778.29204,0.01839
1777.32767,0.01891
1776.36331,0.01916
1775.39894,0.01955
1774.43457,0.02011
1773.47021,0.02025
1772.50584,0.02005
1771.54147,0.02072
1770.57711,0.02240
1769.61274,0.02387
1768.64837,0.02454
1767.68401,0.02523
1766.71964,0.02640
1765.75527,0.02761
1764.79091,0.02859
1763.82654,0.02935
1762.86217,0.02974
1761.89781,0.03011
1760.93344,0.03106
1759.96907,0.03255
1759.00471,0.03380
1758.04034,0.03459
1757.07597,0.03512
1756.11161,0.03602
1755.14724,0.03728
1754.18288,0.03849
1753.21851,0.03929
1752.25414,0.03947
1751.28978,0.03973
1750.32541,0.04040
1749.36104,0.04137
1748.39668,0.04214
1747.43231,0.04316
1746.46794,0.04454
1745.50358,0.04565
1744.53921,0.04628
1743.57484,0.04666
1742.61048,0.04750
1741.64611,0.04865
1740.68174,0.04908
1739.71738,0.04908
1738.75301,0.04954
1737.78864,0.05063
1736.82428,0.05147
1735.85991,0.05188
1734.89554,0.05082
1733.93118,0.04969
1732.96681,0.05010
1732.00244,0.05191
1731.03808,0.05265
1730.07371,0.05256
1729.10934,0.05276
1728.14498,0.05326
1727.18061,0.05347
1726.21624,0.05334
1725.25188,0.05312
1724.28751,0.05273
1723.32314,0.05226
1722.35878,0.05202
1721.39441,0.05189
1720.43004,0.05175
1719.46568,0.05095
1718.50131,0.04897
1717.53694,0.04750
1716.57258,0.04740
1715.60821,0.04762
1714.64384,0.04701
1713.67948,0.04678
1712.71511,0.04704
1711.75074,0.04696
1710.78638,0.04626
1709.82201,0.04547
1708.85764,0.04503
1707.89328,0.04440
1706.92891,0.04326
1705.96454,0.04203
1705.00018,0.04130
1704.03581,0.04095
1703.07144,0.04081
1702.10708,0.04101
1701.14271,0.03874
1700.17834,0.03621
1699.21398,0.03540
1698.24961,0.03703
1697.28524,0.03722
1696.32088,0.03588
1695.35651,0.03491
1694.39214,0.03522
1693.42778,0.03617
1692.46341,0.03622
1691.49905,0.03576
1690.53468,0.03512
1689.57031,0.03458
1688.60595,0.03423
1687.64158,0.03420
1686.67721,0.03456
1685.71285,0.03379
1684.74848,0.03162
1683.78411,0.03062
1682.81975,0.03225
1681.85538,0.03429
1680.89101,0.03467
1679.92665,0.03478
1678.96228,0.03540
1677.99791,0.03635
1677.03355,0.03683
1676.06918,0.03660
1675.10481,0.03654
1674.14045,0.03739
1673.17608,0.03876
1672.21171,0.03931
1671.24735,0.03969
1670.28298,0.03999
1669.31861,0.04049
1668.35425,0.04159
1667.38988,0.04351
1666.42551,0.04523
1665.46115,0.04632
1664.49678,0.04719
1663.53241,0.04765
1662.56805,0.04831
1661.60368,0.04964
1660.63931,0.05144
1659.67495,0.05298
1658.71058,0.05419
1657.74621,0.05529
1656.78185,0.05634
1655.81748,0.05735
1654.85311,0.05763
1653.88875,0.05592
1652.92438,0.05575
1651.96001,0.05842
1650.99565,0.06260
1650.03128,0.06470
1649.06691,0.06570
1648.10255,0.06592
1647.13818,0.06626
1646.17381,0.06749
1645.20945,0.06965
1644.24508,0.07198
1643.28071,0.07374
1642.31635,0.07503
1641.35198,0.07612
1640.38761,0.07738
1639.42325,0.07863
1638.45888,0.07946
1637.49451,0.08011
1636.53015,0.08030
1635.56578,0.08056
1634.60141,0.08176
1633.63705,0.08420
1632.67268,0.08629
1631.70831,0.08745
1630.74395,0.08833
1629.77958,0.08921
1628.81522,0.08950
1627.85085,0.08952
1626.88648,0.08999
1625.92212,0.09109
1624.95775,0.09179
1623.99338,0.09107
1623.02902,0.09045
1622.06465,0.09076
1621.10028,0.09164
1620.13592,0.09174
1619.17155,0.09154
1618.20718,0.09129
1617.24282,0.08940
1616.27845,0.08767
1615.31408,0.08732
1614.34972,0.08823
1613.38535,0.08807
1612.42098,0.08736
1611.45662,0.08666
1610.49225,0.08562
1609.52788,0.08457
1608.56352,0.08361
1607.59915,0.08287
1606.63478,0.08212
1605.67042,0.08145
1604.70605,0.08089
1603.74168,0.08008
1602.77732,0.07932
1601.81295,0.07860
1600.84858,0.07804
1599.88422,0.07750
1598.91985,0.07701
1597.95548,0.07656
1596.99112,0.07604
1596.02675,0.07549
1595.06238,0.07472
1594.09802,0.07417
1593.13365,0.07381
1592.16928,0.07345
1591.20492,0.07290
1590.24055,0.07224
1589.27618,0.07171
1588.31182,0.07107
1587.34745,0.07050
1586.38308,0.06985
1585.41872,0.06921
1584.45435,0.06856
1583.48998,0.06783
1582.52562,0.06710
1581.56125,0.06619
1580.59688,0.06535
1579.63252,0.06434
1578.66815,0.06342
1577.70378,0.06236
1576.73942,0.05998
1575.77505,0.05792
1574.81068,0.05721
1573.84632,0.05764
1572.88195,0.05695
1571.91758,0.05603
1570.95322,0.05465
1569.98885,0.05218
1569.02448,0.05022
1568.06012,0.04961
1567.09575,0.04970
1566.13139,0.04857
1565.16702,0.04685
1564.20265,0.04540
1563.23829,0.04451
1562.27392,0.04401
1561.30955,0.04280
1560.34519,0.03935
1559.38082,0.03484
1558.41645,0.03243
1557.45209,0.03352
1556.48772,0.03530
1555.52335,0.03554
1554.55899,0.03403
1553.59462,0.03283
1552.63025,0.03262
1551.66589,0.03232
1550.70152,0.03078
1549.73715,0.02931
1548.77279,0.02880
1547.80842,0.02872
1546.84405,0.02816
1545.87969,0.02655
1544.91532,0.02493
1543.95095,0.02394
1542.98659,0.02311
1542.02222,0.02206
1541.05785,0.02048
1540.09349,0.01838
1539.12912,0.01717
1538.16475,0.01818
1537.20039,0.01996
1536.23602,0.02030
1535.27165,0.01964
1534.30729,0.01802
1533.34292,0.01689
1532.37855,0.01678
1531.41419,0.01744
1530.44982,0.01755
1529.48545,0.01705
1528.52109,0.01619
1527.55672,0.01549
1526.59235,0.01507
1525.62799,0.01452
1524.66362,0.01427
1523.69925,0.01426
1522.73489,0.01340
1521.77052,0.01196
1520.80615,0.01145
1519.84179,0.01261
1518.87742,0.01363
1517.91305,0.01299
1516.94869,0.01204
1515.98432,0.01221
1515.01995,0.01340
1514.05559,0.01401
1513.09122,0.01399
1512.12685,0.01367
1511.16249,0.01355
1510.19812,0.01340
1509.23375,0.01282
1508.26939,0.01183
1507.30502,0.01021
1506.34065,0.00980
1505.37629,0.01132
1504.41192,0.01378
1503.44756,0.01495
1502.48319,0.01521
1501.51882,0.01528
1500.55446,0.01538
1499.59009,0.01520
1498.62572,0.01502
1497.66136,0.01510
1496.69699,0.01512
1495.73262,0.01540
1494.76826,0.01635
1493.80389,0.01740
1492.83952,0.01790
1491.87516,0.01778
1490.91079,0.01706
1489.94642,0.01669
1488.98206,0.01739
1488.01769,0.01845
1487.05332,0.01920
1486.08896,0.02010
1485.12459,0.02110
1484.16022,0.02187
1483.19586,0.02236
1482.23149,0.02269
1481.26712,0.02306
1480.30276,0.02375
1479.33839,0.02471
1478.37402,0.02544
1477.40966,0.02566
1476.44529,0.02580
1475.48092,0.02651
1474.51656,0.02734
1473.55219,0.02741
1472.58782,0.02753
1471.62346,0.02883
1470.65909,0.03099
1469.69472,0.03270
1468.73036,0.03377
1467.76599,0.03459
1466.80162,0.03537
1465.83726,0.03571
1464.87289,0.03594
1463.90852,0.03690
1462.94416,0.03836
1461.97979,0.03956
1461.01542,0.04030
1460.05106,0.04061
1459.08669,0.04067
1458.12232,0.04043
1457.15796,0.04056
1456.19359,0.04144
1455.22922,0.04338
1454.26486,0.04543
1453.30049,0.04683
1452.33612,0.04765
1451.37176,0.04846
1450.40739,0.04958
1449.44302,0.05041
1448.47866,0.05087
1447.51429,0.05158
1446.54992,0.05287
1445.58556,0.05428
1444.62119,0.05535
1443.65682,0.05635
1442.69246,0.05729
1441.72809,0.05821
1440.76373,0.05908
1439.79936,0.05997
1438.83499,0.06099
1437.87063,0.06141
1436.90626,0.06136
1435.94189,0.06191
1434.97753,0.06358
1434.01316,0.06516
1433.04879,0.06615
1432.08443,0.06706
1431.12006,0.06778
1430.15569,0.06827
1429.19133,0.06900
1428.22696,0.07021
1427.26259,0.07141
1426.29823,0.07247
1425.33386,0.07316
1424.36949,0.07350
1423.40513,0.07418
1422.44076,0.07545
1421.47639,0.07691
1420.51203,0.07730
1419.54766,0.07699
1418.58329,0.07733
1417.61893,0.07879
1416.65456,0.08049
1415.69019,0.08176
1414.72583,0.08304
1413.76146,0.08413
1412.79709,0.08496
1411.83273,0.08567
1410.86836,0.08644
1409.90399,0.08736
1408.93963,0.08825
1407.97526,0.08910
1407.01089,0.08988
1406.04653,0.09039
1405.08216,0.09069
1404.11779,0.09126
1403.15343,0.09227
1402.18906,0.09323
1401.22469,0.09394
1400.26033,0.09410
1399.29596,0.09386
1398.33159,0.09396
1397.36723,0.09472
1396.40286,0.09531
1395.43849,0.09497
1394.47413,0.09469
1393.50976,0.09519
1392.54539,0.09618
1391.58103,0.09668
1390.61666,0.09675
1389.65229,0.09685
1388.68793,0.09669
1387.72356,0.09606
1386.75919,0.09569
1385.79483,0.09603
1384.83046,0.09651
1383.86609,0.09655
1382.90173,0.09646
1381.93736,0.09644
1380.97299,0.09637
1380.00863,0.09623
1379.04426,0.09604
1378.07989,0.09591
1377.11553,0.09589
1376.15116,0.09576
1375.18680,0.09521
1374.22243,0.09455
1373.25806,0.09443
1372.29370,0.09481
1371.32933,0.09507
1370.36496,0.09499
1369.40060,0.09461
1368.43623,0.09427
1367.47186,0.09418
1366.50750,0.09418
1365.54313,0.09410
1364.57876,0.09376
1363.61440,0.09305
1362.65003,0.09240
1361.68566,0.09223
1360.72130,0.09238
1359.75693,0.09241
1358.79256,0.09234
1357.82820,0.09217
1356.86383,0.09194
1355.89946,0.09160
1354.93510,0.09114
1353.97073,0.09080
1353.00636,0.09057
1352.04200,0.09024
1351.07763,0.08981
1350.11326,0.08938
1349.14890,0.08892
1348.18453,0.08848
1347.22016,0.08809
1346.25580,0.08763
1345.29143,0.08711
1344.32706,0.08661
1343.36270,0.08619
1342.39833,0.08571
1341.43396,0.08495
1340.46960,0.08392
1339.50523,0.08304
1338.54086,0.08265
1337.57650,0.08250
1336.61213,0.08226
1335.64776,0.08202
1334.68340,0.08182
1333.71903,0.08151
1332.75466,0.08104
1331.79030,0.08061
1330.82593,0.08024
1329.86156,0.07985
1328.89720,0.07948
1327.93283,0.07915
1326.96846,0.07887
1326.00410,0.07859
1325.03973,0.07829
1324.07536,0.07799
1323.11100,0.07768
1322.14663,0.07737
1321.18226,0.07703
1320.21790,0.07664
1319.25353,0.07622
1318.28916,0.07591
1317.32480,0.07576
1316.36043,0.07560
1315.39606,0.07533
1314.43170,0.07499
1313.46733,0.07464
1312.50297,0.07437
1311.53860,0.07421
1310.57423,0.07405
1309.60987,0.07376
1308.64550,0.07343
1307.68113,0.07315
1306.71677,0.07291
1305.75240,0.07268
1304.78803,0.07246
1303.82367,0.07222
1302.85930,0.07198
1301.89493,0.07174
1300.93057,0.07151
1299.96620,0.07133
1299.00183,0.07116
1298.03747,0.07096
1297.07310,0.07077
1296.10873,0.07066
1295.14437,0.07061
1294.18000,0.07054
1293.21563,0.07050
1292.25127,0.07048
1291.28690,0.07042
1290.32253,0.07030
1289.35817,0.07015
1288.39380,0.07004
1287.42943,0.07000
1286.46507,0.07002
1285.50070,0.07007
1284.53633,0.07009
1283.57197,0.07004
1282.60760,0.06995
1281.64323,0.06987
1280.67887,0.06985
1279.71450,0.06990
1278.75013,0.06998
1277.78577,0.06999
1276.82140,0.06996
1275.85703,0.06996
1274.89267,0.07005
1273.92830,0.07013
1272.96393,0.07010
1271.99957,0.07006
1271.03520,0.07015
1270.07083,0.07027
1269.10647,0.07033
1268.14210,0.07039
1267.17773,0.07051
1266.21337,0.07066
1265.24900,0.07081
1264.28463,0.07093
1263.32027,0.07104
1262.35590,0.07114
1261.39153,0.07123
1260.42717,0.07129
1259.46280,0.07142
1258.49843,0.07163
1257.53407,0.07183
1256.56970,0.07195
1255.60533,0.07206
1254.64097,0.07227
1253.67660,0.07251
1252.71223,0.07269
1251.74787,0.07283
1250.78350,0.07295
1249.81914,0.07305
1248.85477,0.07318
1247.89040,0.07333
1246.92604,0.07347
1245.96167,0.07358
1244.99730,0.07364
1244.03294,0.07371
1243.06857,0.07378
1242.10420,0.07379
1241.13984,0.07380
1240.17547,0.07394
1239.21110,0.07417
1238.24674,0.07429
1237.28237,0.07429
1236.31800,0.07428
1235.35364,0.07430
1234.38927,0.07433
1233.42490,0.07432
1232.46054,0.07427
1231.49617,0.07417
1230.53180,0.07407
1229.56744,0.07401
1228.60307,0.07393
1227.63870,0.07375
1226.67434,0.07350
1225.70997,0.07334
1224.74560,0.07325
1223.78124,0.07312
1222.81687,0.07290
1221.85250,0.07263
1220.88814,0.07238
1219.92377,0.07215
1218.95940,0.07189
1217.99504,0.07155
1217.03067,0.07112
1216.06630,0.07069
1215.10194,0.07034
1214.13757,0.07005
1213.17320,0.06972
1212.20884,0.06930
1211.24447,0.06890
1210.28010,0.06860
1209.31574,0.06836
1208.35137,0.06807
1207.38700,0.06769
1206.42264,0.06727
1205.45827,0.06684
1204.49390,0.06642
1203.52954,0.06598
1202.56517,0.06557
1201.60080,0.06518
1200.63644,0.06479
1199.67207,0.06438
1198.70770,0.06398
1197.74334,0.06366
1196.77897,0.06342
1195.81460,0.06315
1194.85024,0.06273
1193.88587,0.06228
1192.92150,0.06195
1191.95714,0.06171
1190.99277,0.06146
1190.02840,0.06122
1189.06404,0.06101
1188.09967,0.06077
1187.13531,0.06052
1186.17094,0.06031
1185.20657,0.06014
1184.24221,0.05999
1183.27784,0.05981
1182.31347,0.05957
1181.34911,0.05929
1180.38474,0.05904
1179.42037,0.05885
1178.45601,0.05870
1177.49164,0.05859
1176.52727,0.05848
1175.56291,0.05836
1174.59854,0.05825
1173.63417,0.05812
1172.66981,0.05797
1171.70544,0.05784
1170.74107,0.05777
1169.77671,0.05773
1168.81234,0.05763
1167.84797,0.05753
1166.88361,0.05747
1165.91924,0.05744
1164.95487,0.05734
1163.99051,0.05717
1163.02614,0.05704
1162.06177,0.05696
1161.09741,0.05692
1160.13304,0.05690
1159.16867,0.05692
1158.20431,0.05692
1157.23994,0.05686
1156.27557,0.05683
1155.31121,0.05686
1154.34684,0.05692
1153.38247,0.05693
1152.41811,0.05699
1151.45374,0.05715
1150.48937,0.05735
1149.52501,0.05755
1148.56064,0.05774
1147.59627,0.05788
1146.63191,0.05797
1145.66754,0.05808
1144.70317,0.05824
1143.73881,0.05841
1142.77444,0.05852
1141.81007,0.05858
1140.84571,0.05872
1139.88134,0.05900
1138.91697,0.05931
1137.95261,0.05952
1136.98824,0.05970
1136.02387,0.05992
1135.05951,0.06016
1134.09514,0.06040
1133.13077,0.06067
1132.16641,0.06095
1131.20204,0.06121
1130.23767,0.06147
1129.27331,0.06174
1128.30894,0.06204
1127.34457,0.06232
1126.38021,0.06265
1125.41584,0.06304
1124.45148,0.06338
1123.48711,0.06364
1122.52274,0.06392
1121.55838,0.06425
1120.59401,0.06450
1119.62964,0.06474
1118.66528,0.06511
1117.70091,0.06551
1116.73654,0.06579
1115.77218,0.06599
1114.80781,0.06630
1113.84344,0.06671
1112.87908,0.06708
1111.91471,0.06742
1110.95034,0.06780
1109.98598,0.06826
1109.02161,0.06874
1108.05724,0.06924
1107.09288,0.06978
1106.12851,0.07028
1105.16414,0.07073
1104.19978,0.07118
1103.23541,0.07173
1102.27104,0.07235
1101.30668,0.07297
1100.34231,0.07365
1099.37794,0.07437
1098.41358,0.07506
1097.44921,0.07573
1096.48484,0.07649
1095.52048,0.07725
1094.55611,0.07785
1093.59174,0.07838
1092.62738,0.07904
1091.66301,0.07969
1090.69864,0.08030
1089.73428,0.08101
1088.76991,0.08180
1087.80554,0.08245
1086.84118,0.08299
1085.87681,0.08363
1084.91244,0.08434
1083.94808,0.08498
1082.98371,0.08553
1082.01934,0.08606
1081.05498,0.08665
1080.09061,0.08716
1079.12624,0.08751
1078.16188,0.08781
1077.19751,0.08822
1076.23314,0.08873
1075.26878,0.08916
1074.30441,0.08953
1073.34004,0.08980
1072.37568,0.08998
1071.41131,0.09015
1070.44694,0.09029
1069.48258,0.09037
1068.51821,0.09031
1067.55384,0.09011
1066.58948,0.08980
1065.62511,0.08947
1064.66074,0.08918
1063.69638,0.08893
1062.73201,0.08875
1061.76765,0.08852
1060.80328,0.08811
1059.83891,0.08762
1058.87455,0.08713
1057.91018,0.08653
1056.94581,0.08578
1055.98145,0.08504
1055.01708,0.08442
1054.05271,0.08379
1053.08835,0.08300
1052.12398,0.08221
1051.15961,0.08156
1050.19525,0.08085
1049.23088,0.08000
1048.26651,0.07914
1047.30215,0.07837
1046.33778,0.07761
1045.37341,0.07680
1044.40905,0.07589
1043.44468,0.07493
1042.48031,0.07401
1041.51595,0.07311
1040.55158,0.07218
1039.58721,0.07122
1038.62285,0.07028
1037.65848,0.06934
1036.69411,0.06836
1035.72975,0.06738
1034.76538,0.06641
1033.80101,0.06544
1032.83665,0.06451
1031.87228,0.06361
1030.90791,0.06267
1029.94355,0.06166
1028.97918,0.06058
1028.01481,0.05953
1027.05045,0.05862
1026.08608,0.05778
1025.12171,0.05693
1024.15735,0.05616
1023.19298,0.05543
1022.22861,0.05451
1021.26425,0.05349
1020.29988,0.05267
1019.33551,0.05206
1018.37115,0.05146
1017.40678,0.05081
1016.44241,0.05011
1015.47805,0.04942
1014.51368,0.04887
1013.54931,0.04844
1012.58495,0.04794
1011.62058,0.04735
1010.65621,0.04688
1009.69185,0.04656
1008.72748,0.04629
1007.76311,0.04600
1006.79875,0.04568
1005.83438,0.04534
1004.87001,0.04512
1003.90565,0.04505
1002.94128,0.04498
1001.97691,0.04485
1001.01255,0.04470
1000.04818,0.04450
999.08382,0.04426
998.11945,0.04409
997.15508,0.04404
996.19072,0.04401
995.22635,0.04393
994.26198,0.04381
993.29762,0.04371
992.33325,0.04358
991.36888,0.04331
990.40452,0.04297
989.44015,0.04270
988.47578,0.04256
987.51142,0.04243
986.54705,0.04222
985.58268,0.04195
984.61832,0.04172
983.65395,0.04158
982.68958,0.04142
981.72522,0.04114
980.76085,0.04081
979.79648,0.04049
978.83212,0.04019
977.86775,0.03983
976.90338,0.03947
975.93902,0.03912
974.97465,0.03875
974.01028,0.03833
973.04592,0.03786
972.08155,0.03741
971.11718,0.03694
970.15282,0.03642
969.18845,0.03585
968.22408,0.03526
967.25972,0.03466
966.29535,0.03407
965.33098,0.03347
964.36662,0.03284
963.40225,0.03218
962.43788,0.03153
961.47352,0.03093
960.50915,0.03040
959.54478,0.02995
958.58042,0.02952
957.61605,0.02897
956.65168,0.02830
955.68732,0.02765
954.72295,0.02707
953.75858,0.02650
952.79422,0.02595
951.82985,0.02548
950.86548,0.02502
949.90112,0.02448
948.93675,0.02389
947.97238,0.02334
947.00802,0.02285
946.04365,0.02231
945.07928,0.02169
944.11492,0.02111
943.15055,0.02064
942.18618,0.02023
941.22182,0.01978
940.25745,0.01931
939.29308,0.01884
938.32872,0.01839
937.36435,0.01796
936.39998,0.01755
935.43562,0.01713
934.47125,0.01673
933.50689,0.01634
932.54252,0.01587
931.57815,0.01534
930.61379,0.01490
929.64942,0.01458
928.68505,0.01427
927.72069,0.01392
926.75632,0.01354
925.79195,0.01325
924.82759,0.01303
923.86322,0.01272
922.89885,0.01230
921.93449,0.01193
920.97012,0.01169
920.00575,0.01146
919.04139,0.01118
918.07702,0.01084
917.11265,0.01049
916.14829,0.01018
915.18392,0.00987
914.21955,0.00955
913.25519,0.00926
912.29082,0.00905
911.32645,0.00885
910.36209,0.00855
909.39772,0.00814
908.43335,0.00771
907.46899,0.00735
906.50462,0.00704
905.54025,0.00679
904.57589,0.00657
903.61152,0.00630
902.64715,0.00603
901.68279,0.00576
900.71842,0.00545
899.75405,0.00514
898.78969,0.00494
897.82532,0.00488
896.86095,0.00477
895.89659,0.00448
894.93222,0.00415
893.96785,0.00399
893.00349,0.00397
892.03912,0.00391
891.07475,0.00382
890.11039,0.00371
889.14602,0.00358
888.18165,0.00354
887.21729,0.00354
886.25292,0.00344
885.28855,0.00325
884.32419,0.00317
883.35982,0.00322
882.39545,0.00329
881.43109,0.00328
880.46672,0.00314
879.50235,0.00305
878.53799,0.00312
877.57362,0.00326
876.60925,0.00335
875.64489,0.00342
874.68052,0.00352
873.71615,0.00369
872.75179,0.00392
871.78742,0.00408
870.82306,0.00413
869.85869,0.00413
868.89432,0.00419
867.92996,0.00433
866.96559,0.00449
866.00122,0.00459
865.03686,0.00458
864.07249,0.00458
863.10812,0.00468
862.14376,0.00486
861.17939,0.00507
860.21502,0.00520
859.25066,0.00529
858.28629,0.00539
857.32192,0.00549
856.35756,0.00563
855.39319,0.00584
854.42882,0.00602
853.46446,0.00613
852.50009,0.00623
851.53572,0.00634
850.57136,0.00645
849.60699,0.00665
848.64262,0.00691
847.67826,0.00708
846.71389,0.00709
845.74952,0.00708
844.78516,0.00714
843.82079,0.00714
842.85642,0.00706
841.89206,0.00701
840.92769,0.00708
839.96332,0.00722
838.99896,0.00736
838.03459,0.00750
837.07022,0.00759
836.10586,0.00758
835.14149,0.00751
834.17712,0.00751
833.21276,0.00758
832.24839,0.00761
831.28402,0.00761
830.31966,0.00764
829.35529,0.00762
828.39092,0.00754
827.42656,0.00753
826.46219,0.00764
825.49782,0.00766
824.53346,0.00748
823.56909,0.00725
822.60472,0.00710
821.64036,0.00708
820.67599,0.00707
819.71162,0.00692
818.74726,0.00673
817.78289,0.00669
816.81852,0.00669
815.85416,0.00653
814.88979,0.00633
813.92542,0.00622
812.96106,0.00618
811.99669,0.00620
811.03232,0.00631
810.06796,0.00639
809.10359,0.00632
808.13923,0.00626
807.17486,0.00630
806.21049,0.00632
805.24613,0.00628
804.28176,0.00621
803.31739,0.00611
802.35303,0.00596
801.38866,0.00581
800.42429,0.00576
799.45993,0.00576
798.49556,0.00575
797.53119,0.00569
796.56683,0.00565
795.60246,0.00560
794.63809,0.00550
793.67373,0.00547
792.70936,0.00559
791.74499,0.00577
790.78063,0.00588
789.81626,0.00588
788.85189,0.00579
787.88753,0.00566
786.92316,0.00560
785.95879,0.00559
784.99443,0.00561
784.03006,0.00562
783.06569,0.00558
782.10133,0.00552
781.13696,0.00552
780.17259,0.00552
779.20823,0.00542
778.24386,0.00538
777.27949,0.00547
776.31513,0.00556
775.35076,0.00553
774.38639,0.00548
773.42203,0.00547
772.45766,0.00548
771.49329,0.00553
770.52893,0.00560
769.56456,0.00564
768.60019,0.00564
767.63583,0.00563
766.67146,0.00565
765.70709,0.00576
764.74273,0.00592
763.77836,0.00602
762.81399,0.00613
761.84963,0.00624
760.88526,0.00631
759.92089,0.00631
758.95653,0.00628
757.99216,0.00630
757.02779,0.00636
756.06343,0.00642
755.09906,0.00640
754.13469,0.00637
753.17033,0.00647
752.20596,0.00665
751.24159,0.00688
750.27723,0.00710
749.31286,0.00722
748.34849,0.00729
747.38413,0.00742
746.41976,0.00766
745.45540,0.00790
744.49103,0.00810
743.52666,0.00829
742.56230,0.00853
741.59793,0.00879
740.63356,0.00893
739.66920,0.00887
738.70483,0.00877
737.74046,0.00876
736.77610,0.00881
735.81173,0.00895
734.84736,0.00913
733.88300,0.00922
732.91863,0.00909
731.95426,0.00889
730.98990,0.00888
730.02553,0.00903
729.06116,0.00925
728.09680,0.00947
727.13243,0.00971
726.16806,0.00996
725.20370,0.01025
724.23933,0.01048
723.27496,0.01052
722.31060,0.01060
721.34623,0.01103
720.38186,0.01159
719.41750,0.01176
718.45313,0.01160
717.48876,0.01152
716.52440,0.01160
715.56003,0.01174
714.59566,0.01185
713.63130,0.01193
712.66693,0.01201
711.70256,0.01211
710.73820,0.01225
709.77383,0.01240
708.80946,0.01260
707.84510,0.01284
706.88073,0.01308
705.91636,0.01322
704.95200,0.01323
703.98763,0.01325
703.02326,0.01341
702.05890,0.01367
701.09453,0.01387
700.13016,0.01392
699.16580,0.01392
698.20143,0.01402
697.23706,0.01421
696.27270,0.01430
695.30833,0.01436
694.34396,0.01441
693.37960,0.01442
692.41523,0.01444
691.45086,0.01447
690.48650,0.01448
689.52213,0.01452
688.55776,0.01463
687.59340,0.01466
686.62903,0.01468
685.66466,0.01491
684.70030,0.01528
683.73593,0.01548
682.77157,0.01542
681.80720,0.01534
680.84283,0.01538
679.87847,0.01545
678.91410,0.01548
677.94973,0.01546
676.98537,0.01538
676.02100,0.01525
675.05663,0.01513
674.09227,0.01511
673.12790,0.01515
672.16353,0.01511
671.19917,0.01522
670.23480,0.01647
669.27043,0.01991
668.30607,0.02063
667.34170,0.01808
666.37733,0.01490
665.41297,0.01479
664.44860,0.01509
663.48423,0.01534
662.51987,0.01558
661.55550,0.01577
660.59113,0.01597
659.62677,0.01612
658.66240,0.01632
657.69803,0.01660
656.73367,0.01680
655.76930,0.01688
654.80493,0.01687
653.84057,0.01689
652.87620,0.01697
651.91183,0.01703
650.94747,0.01699
649.98310,0.01697
649.01873,0.01710
648.05437,0.01713
647.09000,0.01699
646.12563,0.01677
645.16127,0.01654
644.19690,0.01644
643.23253,0.01658
642.26817,0.01681
641.30380,0.01695
640.33943,0.01708
639.37507,0.01716
638.41070,0.01707
637.44633,0.01700
636.48197,0.01706
635.51760,0.01719
634.55323,0.01727
633.58887,0.01741
632.62450,0.01760
631.66013,0.01766
630.69577,0.01760
629.73140,0.01749
628.76703,0.01750
627.80267,0.01762
626.83830,0.01767
625.87393,0.01761
624.90957,0.01752
623.94520,0.01762
622.98083,0.01787
622.01647,0.01803
621.05210,0.01800
620.08774,0.01801
619.12337,0.01833
618.15900,0.01872
617.19464,0.01881
616.23027,0.01862
615.26590,0.01855
614.30154,0.01868
613.33717,0.01876
612.37280,0.01877
611.40844,0.01874
610.44407,0.01861
609.47970,0.01848
608.51534,0.01841
607.55097,0.01829
606.58660,0.01809
605.62224,0.01802
604.65787,0.01808
603.69350,0.01809
602.72914,0.01807
601.76477,0.01811
600.80040,0.01812
599.83604,0.01806
598.87167,0.01800
597.90730,0.01797
596.94294,0.01804
595.97857,0.01812
595.01420,0.01803
594.04984,0.01781
593.08547,0.01763
592.12110,0.01765
591.15674,0.01790
590.19237,0.01820
589.22800,0.01820
588.26364,0.01799
587.29927,0.01787
586.33490,0.01783
585.37054,0.01766
584.40617,0.01731
583.44180,0.01713
582.47744,0.01722
581.51307,0.01740
580.54870,0.01754
579.58434,0.01762
578.61997,0.01768
577.65560,0.01761
576.69124,0.01751
575.72687,0.01759
574.76250,0.01782
573.79814,0.01784
572.83377,0.01762
571.86940,0.01769
570.90504,0.01795
569.94067,0.01781
568.97630,0.01739
568.01194,0.01727
567.04757,0.01760
566.08320,0.01785
565.11884,0.01767
564.15447,0.01732
563.19010,0.01717
562.22574,0.01722
561.26137,0.01719
560.29700,0.01726
559.33264,0.01748
558.36827,0.01742
557.40390,0.01707
556.43954,0.01694
555.47517,0.01720
554.51081,0.01742
553.54644,0.01743
552.58207,0.01746
551.61771,0.01751
550.65334,0.01727
549.68897,0.01684
548.72461,0.01674
547.76024,0.01709
546.79587,0.01737
545.83151,0.01716
544.86714,0.01675
543.90277,0.01659
542.93841,0.01673
541.97404,0.01689
541.00967,0.01696
540.04531,0.01704
539.08094,0.01712
538.11657,0.01708
537.15221,0.01683
536.18784,0.01662
535.22347,0.01675
534.25911,0.01696
533.29474,0.01697
532.33037,0.01687
531.36601,0.01701
530.40164,0.01738
529.43727,0.01759
528.47291,0.01758
527.50854,0.01755
526.54417,0.01751
525.57981,0.01740
524.61544,0.01728
523.65107,0.01723
522.68671,0.01715
521.72234,0.01690
520.75797,0.01635
519.79361,0.01580
518.82924,0.01566
517.86487,0.01561
516.90051,0.01522
515.93614,0.01487
514.97177,0.01533
514.00741,0.01617
513.04304,0.01652
512.07867,0.01655
511.11431,0.01674
510.14994,0.01693
509.18557,0.01672
508.22121,0.01644
507.25684,0.01649
506.29247,0.01650
505.32811,0.01616
504.36374,0.01574
503.39937,0.01551
502.43501,0.01538
501.47064,0.01538
500.50627,0.01541
499.54191,0.01524
498.57754,0.01503
497.61317,0.01492
496.64881,0.01459
495.68444,0.01417
494.72007,0.01406
493.75571,0.01412
492.79134,0.01426
491.82698,0.01456
490.86261,0.01466
489.89824,0.01469
488.93388,0.01516
487.96951,0.01578
487.00514,0.01603
486.04078,0.01629
485.07641,0.01659
484.11204,0.01635
483.14768,0.01580
482.18331,0.01524
481.21894,0.01483
480.25458,0.01489
479.29021,0.01511
478.32584,0.01469
477.36148,0.01353
476.39711,0.01260
475.43274,0.01266
474.46838,0.01327
473.50401,0.01334
472.53964,0.01278
471.57528,0.01241
470.61091,0.01259
469.64654,0.01296
468.68218,0.01313
467.71781,0.01312
466.75344,0.01325
465.78908,0.01357
464.82471,0.01397
463.86034,0.01412
462.89598,0.01380
461.93161,0.01340
460.96724,0.01334
460.00288,0.01331
459.03851,0.01269
458.07414,0.01191
457.10978,0.01096
456.14541,0.01000
455.18104,0.00999
454.21668,0.01096
453.25231,0.01196
452.28794,0.01194
451.32358,0.01131
450.35921,0.01108
449.39484,0.01133
448.43048,0.01147
447.46611,0.01121
446.50174,0.01111
445.53738,0.01118
444.57301,0.01128
443.60864,0.01108
442.64428,0.01018
441.67991,0.00988
440.71554,0.01073
439.75118,0.01129
438.78681,0.01029
437.82244,0.00892
436.85808,0.00897
435.89371,0.00979
434.92934,0.00982
433.96498,0.00903
433.00061,0.00912
432.03624,0.00967
431.07188,0.00936
430.10751,0.00871
429.14315,0.00816
428.17878,0.00801
427.21441,0.00817
426.25005,0.00806
425.28568,0.00738
424.32131,0.00728
423.35695,0.00846
422.39258,0.00878
421.42821,0.00789
420.46385,0.00652
419.49948,0.00391
418.53511,0.00228
417.57075,0.00289
416.60638,0.00494
415.64201,0.00550
414.67765,0.00610
413.71328,0.00680
412.74891,0.00575
411.78455,0.00330
410.82018,0.00115
409.85581,0.00027
408.89145,0.00005
407.92708,0.00020
406.96271,0.00076
405.99835,0.00155
405.03398,0.00234
404.06961,0.00273
403.10525,0.00349
402.14088,0.00429
401.17651,0.00332
400.21215,0.00332
399.24778,0.00332
