1900.76660,0.00302
1899.80223,0.00291
1898.83787,0.00280
1897.87350,0.00269
1896.90913,0.00259
1895.94477,0.00248
1894.98040,0.00237
1894.01603,0.00226
1893.05167,0.00215
1892.08730,0.00204
1891.12293,0.00193
1890.15857,0.00183
1889.19420,0.00172
1888.22983,0.00161
1887.26547,0.00150
1886.30110,0.00139
1885.33673,0.00128
1884.37237,0.00118
1883.40800,0.00107
1882.44364,0.00096
1881.47927,0.00085
1880.51490,0.00089
1879.55054,0.00107
1878.58617,0.00112
1877.62180,0.00115
1876.65744,0.00126
1875.69307,0.00121
1874.72870,0.00091
1873.76434,0.00078
1872.79997,0.00088
1871.83560,0.00097
1870.87124,0.00137
1869.90687,0.00222
1868.94250,0.00269
1867.97814,0.00225
1867.01377,0.00141
1866.04940,0.00091
1865.08504,0.00075
1864.12067,0.00064
1863.15630,0.00051
1862.19194,0.00058
1861.22757,0.00080
1860.26320,0.00081
1859.29884,0.00055
1858.33447,0.00035
1857.37010,0.00040
1856.40574,0.00063
1855.44137,0.00062
1854.47700,0.00028
1853.51264,0.00009
1852.54827,0.00030
1851.58390,0.00065
1850.61954,0.00083
1849.65517,0.00096
1848.69080,0.00102
1847.72644,0.00072
1846.76207,0.00031
1845.79770,0.00092
1844.83334,0.00232
1843.86897,0.00262
1842.90460,0.00159
1841.94024,0.00075
1840.97587,0.00075
1840.01150,0.00073
1839.04714,0.00057
1838.08277,0.00062
1837.11840,0.00078
1836.15404,0.00082
1835.18967,0.00068
1834.22530,0.00063
1833.26094,0.00075
1832.29657,0.00095
1831.33220,0.00149
1830.36784,0.00223
1829.40347,0.00244
1828.43910,0.00181
1827.47474,0.00127
1826.51037,0.00167
1825.54600,0.00212
1824.58164,0.00194
1823.61727,0.00148
1822.65290,0.00145
1821.68854,0.00164
1820.72417,0.00168
1819.75981,0.00165
1818.79544,0.00168
1817.83107,0.00177
1816.86671,0.00182
1815.90234,0.00164
1814.93797,0.00144
1813.97361,0.00151
1813.00924,0.00177
1812.04487,0.00204
1811.08051,0.00213
1810.11614,0.00203
1809.15177,0.00194
1808.18741,0.00193
1807.22304,0.00198
1806.25867,0.00204
1805.29431,0.00208
1804.32994,0.00212
1803.36557,0.00231
1802.40121,0.00261
1801.43684,0.00279
1800.47247,0.00283
1799.50811,0.00270
1798.54374,0.00248
1797.57937,0.00245
1796.61501,0.00267
1795.65064,0.00280
1794.68627,0.00283
1793.72191,0.00328
1792.75754,0.00386
1791.79317,0.00397
1790.82881,0.00356
1789.86444,0.00326
1788.90007,0.00323
1787.93571,0.00321
1786.97134,0.00324
1786.00697,0.00353
1785.04261,0.00386
1784.07824,0.00383
1783.11387,0.00374
1782.14951,0.00415
1781.18514,0.00470
1780.22077,0.00481
1779.25641,0.00456
1778.29204,0.00451
1777.32767,0.00488
1776.36331,0.00536
1775.39894,0.00564
1774.43457,0.00596
1773.47021,0.00678
1772.50584,0.00753
1771.54147,0.00758
1770.57711,0.00725
1769.61274,0.00750
1768.64837,0.00807
1767.68401,0.00832
1766.71964,0.00827
1765.75527,0.00832
1764.79091,0.00861
1763.82654,0.00911
1762.86217,0.01004
1761.89781,0.01079
1760.93344,0.01097
1759.96907,0.01086
1759.00471,0.01110
1758.04034,0.01180
1757.07597,0.01242
1756.11161,0.01267
1755.14724,0.01268
1754.18288,0.01294
1753.21851,0.01368
1752.25414,0.01472
1751.28978,0.01545
1750.32541,0.01573
1749.36104,0.01592
1748.39668,0.01616
1747.43231,0.01625
1746.46794,0.01640
1745.50358,0.01680
1744.53921,0.01740
1743.57484,0.01782
1742.61048,0.01794
1741.64611,0.01813
1740.68174,0.01862
1739.71738,0.01898
1738.75301,0.01907
1737.78864,0.01912
1736.82428,0.01936
1735.85991,0.02028
1734.89554,0.02181
1733.93118,0.02238
1732.96681,0.02160
1732.00244,0.02080
1731.03808,0.02102
1730.07371,0.02127
1729.10934,0.02119
1728.14498,0.02101
1727.18061,0.02102
1726.21624,0.02109
1725.25188,0.02117
1724.28751,0.02124
1723.32314,0.02122
1722.35878,0.02118
1721.39441,0.02115
1720.43004,0.02133
1719.46568,0.02212
1718.50131,0.02291
1717.53694,0.02280
1716.57258,0.02203
1715.60821,0.02157
1714.64384,0.02124
1713.67948,0.02074
1712.71511,0.02032
1711.75074,0.02019
1710.78638,0.02009
1709.82201,0.01982
1708.85764,0.01959
1707.89328,0.01960
1706.92891,0.01973
1705.96454,0.01968
1705.00018,0.01947
1704.03581,0.01916
1703.07144,0.01889
1702.10708,0.01966
1701.14271,0.02148
1700.17834,0.02158
1699.21398,0.01983
1698.24961,0.01830
1697.28524,0.01904
1696.32088,0.01957
1695.35651,0.01905
1694.39214,0.01799
1693.42778,0.01760
1692.46341,0.01759
1691.49905,0.01762
1690.53468,0.01778
1689.57031,0.01805
1688.60595,0.01814
1687.64158,0.01804
1686.67721,0.01823
1685.71285,0.01954
1684.74848,0.02082
1683.78411,0.02057
1682.81975,0.01932
1681.85538,0.01891
1680.89101,0.01926
1679.92665,0.01944
1678.96228,0.01938
1677.99791,0.01952
1677.03355,0.02020
1676.06918,0.02116
1675.10481,0.02156
1674.14045,0.02144
1673.17608,0.02157
1672.21171,0.02213
1671.24735,0.02269
1670.28298,0.02323
1669.31861,0.02369
1668.35425,0.02396
1667.38988,0.02426
1666.42551,0.02478
1665.46115,0.02531
1664.49678,0.02591
1663.53241,0.02663
1662.56805,0.02729
1661.60368,0.02773
1660.63931,0.02819
1659.67495,0.02881
1658.71058,0.02947
1657.74621,0.03013
1656.78185,0.03081
1655.81748,0.03181
1654.85311,0.03390
1653.88875,0.03693
1652.92438,0.03756
1651.96001,0.03602
1650.99565,0.03475
1650.03128,0.03565
1649.06691,0.03686
1648.10255,0.03817
1647.13818,0.03931
1646.17381,0.03967
1645.20945,0.03962
1644.24508,0.03990
1643.28071,0.04067
1642.31635,0.04151
1641.35198,0.04223
1640.38761,0.04301
1639.42325,0.04393
1638.45888,0.04491
1637.49451,0.04607
1636.53015,0.04756
1635.56578,0.04822
1634.60141,0.04806
1633.63705,0.04795
1632.67268,0.04873
1631.70831,0.04947
1630.74395,0.05008
1629.77958,0.05077
1628.81522,0.05149
1627.85085,0.05199
1626.88648,0.05226
1625.92212,0.05266
1624.95775,0.05358
1623.99338,0.05427
1623.02902,0.05442
1622.06465,0.05433
1621.10028,0.05455
1620.13592,0.05485
1619.17155,0.05519
1618.20718,0.05604
1617.24282,0.05639
1616.27845,0.05603
1615.31408,0.05549
1614.34972,0.05562
1613.38535,0.05585
1612.42098,0.05593
1611.45662,0.05611
1610.49225,0.05626
1609.52788,0.05639
1608.56352,0.05651
1607.59915,0.05671
1606.63478,0.05687
1605.67042,0.05695
1604.70605,0.05718
1603.74168,0.05748
1602.77732,0.05773
1601.81295,0.05789
1600.84858,0.05811
1599.88422,0.05847
1598.91985,0.05885
1597.95548,0.05917
1596.99112,0.05946
1596.02675,0.05985
1595.06238,0.06014
1594.09802,0.06032
1593.13365,0.06045
1592.16928,0.06063
1591.20492,0.06080
1590.24055,0.06086
1589.27618,0.06088
1588.31182,0.06080
1587.34745,0.06072
1586.38308,0.06056
1585.41872,0.06037
1584.45435,0.06020
1583.48998,0.05993
1582.52562,0.05950
1581.56125,0.05888
1580.59688,0.05827
1579.63252,0.05752
1578.66815,0.05695
1577.70378,0.05697
1576.73942,0.05622
1575.77505,0.05454
1574.81068,0.05266
1573.84632,0.05170
1572.88195,0.05067
1571.91758,0.04971
1570.95322,0.04905
1569.98885,0.04769
1569.02448,0.04576
1568.06012,0.04388
1567.09575,0.04281
1566.13139,0.04163
1565.16702,0.04018
1564.20265,0.03858
1563.23829,0.03709
1562.27392,0.03618
1561.30955,0.03604
1560.34519,0.03664
1559.38082,0.03624
1558.41645,0.03362
1557.45209,0.03025
1556.48772,0.02833
1555.52335,0.02794
1554.55899,0.02689
1553.59462,0.02530
1552.63025,0.02394
1551.66589,0.02352
1550.70152,0.02303
1549.73715,0.02202
1548.77279,0.02084
1547.80842,0.01993
1546.84405,0.01961
1545.87969,0.01927
1544.91532,0.01873
1543.95095,0.01821
1542.98659,0.01785
1542.02222,0.01751
1541.05785,0.01725
1540.09349,0.01705
1539.12912,0.01594
1538.16475,0.01442
1537.20039,0.01352
1536.23602,0.01332
1535.27165,0.01332
1534.30729,0.01319
1533.34292,0.01277
1532.37855,0.01202
1531.41419,0.01140
1530.44982,0.01098
1529.48545,0.01082
1528.52109,0.01078
1527.55672,0.01059
1526.59235,0.01047
1525.62799,0.01026
1524.66362,0.00999
1523.69925,0.00982
1522.73489,0.01012
1521.77052,0.01056
1520.80615,0.01028
1519.84179,0.00947
1518.87742,0.00898
1517.91305,0.00932
1516.94869,0.00952
1515.98432,0.00918
1515.01995,0.00864
1514.05559,0.00844
1513.09122,0.00857
1512.12685,0.00865
1511.16249,0.00873
1510.19812,0.00905
1509.23375,0.00976
1508.26939,0.01094
1507.30502,0.01160
1506.34065,0.01092
1505.37629,0.00940
1504.41192,0.00865
1503.44756,0.00871
1502.48319,0.00898
1501.51882,0.00921
1500.55446,0.00937
1499.59009,0.00958
1498.62572,0.00978
1497.66136,0.01017
1496.69699,0.01051
1495.73262,0.01063
1494.76826,0.01061
1493.80389,0.01078
1492.83952,0.01119
1491.87516,0.01177
1490.91079,0.01254
1489.94642,0.01304
1488.98206,0.01315
1488.01769,0.01313
1487.05332,0.01326
1486.08896,0.01352
1485.12459,0.01381
1484.16022,0.01420
1483.19586,0.01464
1482.23149,0.01518
1481.26712,0.01572
1480.30276,0.01616
1479.33839,0.01654
1478.37402,0.01705
1477.40966,0.01797
1476.44529,0.01883
1475.48092,0.01944
1474.51656,0.02013
1473.55219,0.02108
1472.58782,0.02171
1471.62346,0.02174
1470.65909,0.02190
1469.69472,0.02246
1468.73036,0.02320
1467.76599,0.02383
1466.80162,0.02448
1465.83726,0.02535
1464.87289,0.02604
1463.90852,0.02656
1462.94416,0.02705
1461.97979,0.02777
1461.01542,0.02860
1460.05106,0.02953
1459.08669,0.03070
1458.12232,0.03208
1457.15796,0.03315
1456.19359,0.03343
1455.22922,0.03339
1454.26486,0.03380
1453.30049,0.03461
1452.33612,0.03546
1451.37176,0.03606
1450.40739,0.03670
1449.44302,0.03758
1448.47866,0.03844
1447.51429,0.03899
1446.54992,0.03944
1445.58556,0.04007
1444.62119,0.04066
1443.65682,0.04122
1442.69246,0.04176
1441.72809,0.04235
1440.76373,0.04286
1439.79936,0.04326
1438.83499,0.04390
1437.87063,0.04499
1436.90626,0.04574
1435.94189,0.04575
1434.97753,0.04563
1434.01316,0.04602
1433.04879,0.04648
1432.08443,0.04690
1431.12006,0.04741
1430.15569,0.04794
1429.19133,0.04829
1428.22696,0.04859
1427.26259,0.04899
1426.29823,0.04961
1425.33386,0.05041
1424.36949,0.05104
1423.40513,0.05140
1422.44076,0.05165
1421.47639,0.05236
1420.51203,0.05360
1419.54766,0.05445
1418.58329,0.05468
1417.61893,0.05462
1416.65456,0.05482
1415.69019,0.05503
1414.72583,0.05535
1413.76146,0.05570
1412.79709,0.05591
1411.83273,0.05603
1410.86836,0.05611
1409.90399,0.05621
1408.93963,0.05619
1407.97526,0.05610
1407.01089,0.05615
1406.04653,0.05626
1405.08216,0.05607
1404.11779,0.05561
1403.15343,0.05527
1402.18906,0.05507
1401.22469,0.05493
1400.26033,0.05488
1399.29596,0.05473
1398.33159,0.05436
1397.36723,0.05399
1396.40286,0.05400
1395.43849,0.05412
1394.47413,0.05388
1393.50976,0.05319
1392.54539,0.05248
1391.58103,0.05205
1390.61666,0.05170
1389.65229,0.05154
1388.68793,0.05153
1387.72356,0.05137
1386.75919,0.05093
1385.79483,0.05042
1384.83046,0.05011
1383.86609,0.04987
1382.90173,0.04968
1381.93736,0.04952
1380.97299,0.04935
1380.00863,0.04917
1379.04426,0.04901
1378.07989,0.04881
1377.11553,0.04856
1376.15116,0.04847
1375.18680,0.04849
1374.22243,0.04828
1373.25806,0.04775
1372.29370,0.04729
1371.32933,0.04709
1370.36496,0.04698
1369.40060,0.04673
1368.43623,0.04632
1367.47186,0.04597
1366.50750,0.04569
1365.54313,0.04551
1364.57876,0.04550
1363.61440,0.04550
1362.65003,0.04531
1361.68566,0.04489
1360.72130,0.04444
1359.75693,0.04406
1358.79256,0.04381
1357.82820,0.04361
1356.86383,0.04334
1355.89946,0.04311
1354.93510,0.04287
1353.97073,0.04261
1353.00636,0.04236
1352.04200,0.04216
1351.07763,0.04201
1350.11326,0.04186
1349.14890,0.04171
1348.18453,0.04158
1347.22016,0.04152
1346.25580,0.04144
1345.29143,0.04133
1344.32706,0.04124
1343.36270,0.04120
1342.39833,0.04124
1341.43396,0.04137
1340.46960,0.04148
1339.50523,0.04143
1338.54086,0.04119
1337.57650,0.04090
1336.61213,0.04061
1335.64776,0.04036
1334.68340,0.04013
1333.71903,0.03988
1332.75466,0.03962
1331.79030,0.03940
1330.82593,0.03920
1329.86156,0.03893
1328.89720,0.03867
1327.93283,0.03845
1326.96846,0.03819
1326.00410,0.03788
1325.03973,0.03762
1324.07536,0.03743
1323.11100,0.03723
1322.14663,0.03694
1321.18226,0.03664
1320.21790,0.03642
1319.25353,0.03619
1318.28916,0.03588
1317.32480,0.03554
1316.36043,0.03518
1315.39606,0.03487
1314.43170,0.03463
1313.46733,0.03442
1312.50297,0.03413
1311.53860,0.03379
1310.57423,0.03346
1309.60987,0.03320
1308.64550,0.03302
1307.68113,0.03285
1306.71677,0.03263
1305.75240,0.03240
1304.78803,0.03222
1303.82367,0.03203
1302.85930,0.03180
1301.89493,0.03158
1300.93057,0.03145
1299.96620,0.03134
1299.00183,0.03118
1298.03747,0.03105
1297.07310,0.03099
1296.10873,0.03093
1295.14437,0.03082
1294.18000,0.03071
1293.21563,0.03066
1292.25127,0.03070
1291.28690,0.03081
1290.32253,0.03088
1289.35817,0.03091
1288.39380,0.03094
1287.42943,0.03098
1286.46507,0.03098
1285.50070,0.03096
1284.53633,0.03099
1283.57197,0.03106
1282.60760,0.03107
1281.64323,0.03102
1280.67887,0.03101
1279.71450,0.03107
1278.75013,0.03109
1277.78577,0.03105
1276.82140,0.03106
1275.85703,0.03114
1274.89267,0.03125
1273.92830,0.03132
1272.96393,0.03134
1271.99957,0.03135
1271.03520,0.03139
1270.07083,0.03148
1269.10647,0.03162
1268.14210,0.03179
1267.17773,0.03196
1266.21337,0.03209
1265.24900,0.03220
1264.28463,0.03233
1263.32027,0.03245
1262.35590,0.03251
1261.39153,0.03255
1260.42717,0.03263
1259.46280,0.03275
1258.49843,0.03288
1257.53407,0.03300
1256.56970,0.03307
1255.60533,0.03309
1254.64097,0.03309
1253.67660,0.03314
1252.71223,0.03322
1251.74787,0.03327
1250.78350,0.03330
1249.81914,0.03334
1248.85477,0.03335
1247.89040,0.03328
1246.92604,0.03316
1245.96167,0.03308
1244.99730,0.03310
1244.03294,0.03311
1243.06857,0.03312
1242.10420,0.03320
1241.13984,0.03325
1240.17547,0.03316
1239.21110,0.03298
1238.24674,0.03283
1237.28237,0.03275
1236.31800,0.03275
1235.35364,0.03275
1234.38927,0.03273
1233.42490,0.03271
1232.46054,0.03266
1231.49617,0.03256
1230.53180,0.03244
1229.56744,0.03241
1228.60307,0.03242
1227.63870,0.03233
1226.67434,0.03215
1225.70997,0.03202
1224.74560,0.03200
1223.78124,0.03199
1222.81687,0.03189
1221.85250,0.03172
1220.88814,0.03157
1219.92377,0.03145
1218.95940,0.03128
1217.99504,0.03109
1217.03067,0.03096
1216.06630,0.03083
1215.10194,0.03059
1214.13757,0.03031
1213.17320,0.03015
1212.20884,0.03004
1211.24447,0.02984
1210.28010,0.02962
1209.31574,0.02950
1208.35137,0.02943
1207.38700,0.02928
1206.42264,0.02913
1205.45827,0.02905
1204.49390,0.02895
1203.52954,0.02879
1202.56517,0.02859
1201.60080,0.02840
1200.63644,0.02825
1199.67207,0.02817
1198.70770,0.02809
1197.74334,0.02799
1196.77897,0.02793
1195.81460,0.02789
1194.85024,0.02781
1193.88587,0.02777
1192.92150,0.02777
1191.95714,0.02768
1190.99277,0.02753
1190.02840,0.02742
1189.06404,0.02739
1188.09967,0.02740
1187.13531,0.02738
1186.17094,0.02731
1185.20657,0.02725
1184.24221,0.02721
1183.27784,0.02712
1182.31347,0.02704
1181.34911,0.02704
1180.38474,0.02712
1179.42037,0.02718
1178.45601,0.02718
1177.49164,0.02717
1176.52727,0.02716
1175.56291,0.02711
1174.59854,0.02701
1173.63417,0.02693
1172.66981,0.02688
1171.70544,0.02688
1170.74107,0.02694
1169.77671,0.02703
1168.81234,0.02708
1167.84797,0.02705
1166.88361,0.02698
1165.91924,0.02696
1164.95487,0.02700
1163.99051,0.02706
1163.02614,0.02706
1162.06177,0.02708
1161.09741,0.02712
1160.13304,0.02711
1159.16867,0.02706
1158.20431,0.02708
1157.23994,0.02719
1156.27557,0.02727
1155.31121,0.02726
1154.34684,0.02726
1153.38247,0.02738
1152.41811,0.02752
1151.45374,0.02756
1150.48937,0.02758
1149.52501,0.02770
1148.56064,0.02786
1147.59627,0.02797
1146.63191,0.02808
1145.66754,0.02821
1144.70317,0.02836
1143.73881,0.02849
1142.77444,0.02863
1141.81007,0.02880
1140.84571,0.02895
1139.88134,0.02903
1138.91697,0.02912
1137.95261,0.02928
1136.98824,0.02942
1136.02387,0.02953
1135.05951,0.02973
1134.09514,0.03006
1133.13077,0.03034
1132.16641,0.03042
1131.20204,0.03052
1130.23767,0.03081
1129.27331,0.03108
1128.30894,0.03119
1127.34457,0.03131
1126.38021,0.03151
1125.41584,0.03171
1124.45148,0.03189
1123.48711,0.03211
1122.52274,0.03242
1121.55838,0.03283
1120.59401,0.03315
1119.62964,0.03335
1118.66528,0.03362
1117.70091,0.03393
1116.73654,0.03418
1115.77218,0.03444
1114.80781,0.03476
1113.84344,0.03511
1112.87908,0.03542
1111.91471,0.03569
1110.95034,0.03594
1109.98598,0.03627
1109.02161,0.03659
1108.05724,0.03674
1107.09288,0.03691
1106.12851,0.03722
1105.16414,0.03745
1104.19978,0.03750
1103.23541,0.03757
1102.27104,0.03781
1101.30668,0.03803
1100.34231,0.03806
1099.37794,0.03807
1098.41358,0.03822
1097.44921,0.03839
1096.48484,0.03842
1095.52048,0.03855
1094.55611,0.03891
1093.59174,0.03924
1092.62738,0.03940
1091.66301,0.03963
1090.69864,0.04008
1089.73428,0.04049
1088.76991,0.04069
1087.80554,0.04080
1086.84118,0.04105
1085.87681,0.04140
1084.91244,0.04163
1083.94808,0.04175
1082.98371,0.04194
1082.01934,0.04223
1081.05498,0.04247
1080.09061,0.04262
1079.12624,0.04283
1078.16188,0.04304
1077.19751,0.04312
1076.23314,0.04307
1075.26878,0.04307
1074.30441,0.04313
1073.34004,0.04302
1072.37568,0.04277
1071.41131,0.04264
1070.44694,0.04260
1069.48258,0.04243
1068.51821,0.04230
1067.55384,0.04250
1066.58948,0.04267
1065.62511,0.04237
1064.66074,0.04175
1063.69638,0.04124
1062.73201,0.04091
1061.76765,0.04060
1060.80328,0.04026
1059.83891,0.04002
1058.87455,0.03992
1057.91018,0.03974
1056.94581,0.03925
1055.98145,0.03862
1055.01708,0.03820
1054.05271,0.03798
1053.08835,0.03765
1052.12398,0.03719
1051.15961,0.03677
1050.19525,0.03638
1049.23088,0.03585
1048.26651,0.03527
1047.30215,0.03487
1046.33778,0.03453
1045.37341,0.03397
1044.40905,0.03326
1043.44468,0.03268
1042.48031,0.03227
1041.51595,0.03178
1040.55158,0.03119
1039.58721,0.03071
1038.62285,0.03045
1037.65848,0.03012
1036.69411,0.02947
1035.72975,0.02874
1034.76538,0.02823
1033.80101,0.02778
1032.83665,0.02718
1031.87228,0.02658
1030.90791,0.02615
1029.94355,0.02584
1028.97918,0.02558
1028.01481,0.02524
1027.05045,0.02470
1026.08608,0.02405
1025.12171,0.02343
1024.15735,0.02290
1023.19298,0.02248
1022.22861,0.02210
1021.26425,0.02166
1020.29988,0.02122
1019.33551,0.02085
1018.37115,0.02046
1017.40678,0.02000
1016.44241,0.01967
1015.47805,0.01952
1014.51368,0.01934
1013.54931,0.01906
1012.58495,0.01878
1011.62058,0.01857
1010.65621,0.01841
1009.69185,0.01821
1008.72748,0.01798
1007.76311,0.01788
1006.79875,0.01797
1005.83438,0.01803
1004.87001,0.01795
1003.90565,0.01784
1002.94128,0.01771
1001.97691,0.01746
1001.01255,0.01721
1000.04818,0.01717
999.08382,0.01721
998.11945,0.01701
997.15508,0.01670
996.19072,0.01656
995.22635,0.01657
994.26198,0.01654
993.29762,0.01646
992.33325,0.01643
991.36888,0.01646
990.40452,0.01645
989.44015,0.01639
988.47578,0.01642
987.51142,0.01659
986.54705,0.01667
985.58268,0.01661
984.61832,0.01654
983.65395,0.01646
982.68958,0.01631
981.72522,0.01613
980.76085,0.01605
979.79648,0.01601
978.83212,0.01589
977.86775,0.01571
976.90338,0.01558
975.93902,0.01545
974.97465,0.01520
974.01028,0.01484
973.04592,0.01453
972.08155,0.01438
971.11718,0.01427
970.15282,0.01406
969.18845,0.01388
968.22408,0.01381
967.25972,0.01375
966.29535,0.01358
965.33098,0.01336
964.36662,0.01320
963.40225,0.01310
962.43788,0.01292
961.47352,0.01263
960.50915,0.01238
959.54478,0.01216
958.58042,0.01185
957.61605,0.01158
956.65168,0.01149
955.68732,0.01142
954.72295,0.01114
953.75858,0.01081
952.79422,0.01068
951.82985,0.01070
950.86548,0.01062
949.90112,0.01042
948.93675,0.01030
947.97238,0.01030
947.00802,0.01023
946.04365,0.01003
945.07928,0.00989
944.11492,0.00992
943.15055,0.00989
942.18618,0.00966
941.22182,0.00949
940.25745,0.00956
939.29308,0.00961
938.32872,0.00946
937.36435,0.00932
936.39998,0.00935
935.43562,0.00940
934.47125,0.00926
933.50689,0.00904
932.54252,0.00891
931.57815,0.00881
930.61379,0.00859
929.64942,0.00836
928.68505,0.00828
927.72069,0.00815
926.75632,0.00784
925.79195,0.00751
924.82759,0.00738
923.86322,0.00737
922.89885,0.00723
921.93449,0.00694
920.97012,0.00672
920.00575,0.00659
919.04139,0.00633
918.07702,0.00593
917.11265,0.00572
916.14829,0.00572
915.18392,0.00557
914.21955,0.00522
913.25519,0.00500
912.29082,0.00501
911.32645,0.00498
910.36209,0.00478
909.39772,0.00460
908.43335,0.00448
907.46899,0.00432
906.50462,0.00421
905.54025,0.00420
904.57589,0.00411
903.61152,0.00389
902.64715,0.00371
901.68279,0.00365
900.71842,0.00359
899.75405,0.00346
898.78969,0.00328
897.82532,0.00315
896.86095,0.00316
895.89659,0.00322
894.93222,0.00316
893.96785,0.00303
893.00349,0.00302
892.03912,0.00309
891.07475,0.00297
890.11039,0.00280
889.14602,0.00280
888.18165,0.00283
887.21729,0.00277
886.25292,0.00271
885.28855,0.00266
884.32419,0.00253
883.35982,0.00239
882.39545,0.00235
881.43109,0.00242
880.46672,0.00251
879.50235,0.00252
878.53799,0.00247
877.57362,0.00250
876.60925,0.00257
875.64489,0.00249
874.68052,0.00228
873.71615,0.00218
872.75179,0.00224
871.78742,0.00230
870.82306,0.00227
869.85869,0.00220
868.89432,0.00219
867.92996,0.00222
866.96559,0.00229
866.00122,0.00249
865.03686,0.00274
864.07249,0.00276
863.10812,0.00259
862.14376,0.00258
861.17939,0.00279
860.21502,0.00291
859.25066,0.00285
858.28629,0.00276
857.32192,0.00270
856.35756,0.00266
855.39319,0.00263
854.42882,0.00266
853.46446,0.00274
852.50009,0.00277
851.53572,0.00268
850.57136,0.00258
849.60699,0.00260
848.64262,0.00262
847.67826,0.00256
846.71389,0.00248
845.74952,0.00247
844.78516,0.00248
843.82079,0.00241
842.85642,0.00233
841.89206,0.00235
840.92769,0.00242
839.96332,0.00243
838.99896,0.00237
838.03459,0.00232
837.07022,0.00225
836.10586,0.00215
835.14149,0.00211
834.17712,0.00224
833.21276,0.00234
832.24839,0.00219
831.28402,0.00197
830.31966,0.00202
829.35529,0.00229
828.39092,0.00233
827.42656,0.00215
826.46219,0.00217
825.49782,0.00240
824.53346,0.00240
823.56909,0.00211
822.60472,0.00201
821.64036,0.00215
820.67599,0.00207
819.71162,0.00170
818.74726,0.00146
817.78289,0.00151
816.81852,0.00154
815.85416,0.00139
814.88979,0.00119
813.92542,0.00114
812.96106,0.00118
811.99669,0.00109
811.03232,0.00089
810.06796,0.00088
809.10359,0.00106
808.13923,0.00114
807.17486,0.00108
806.21049,0.00104
805.24613,0.00099
804.28176,0.00084
803.31739,0.00074
802.35303,0.00081
801.38866,0.00088
800.42429,0.00077
799.45993,0.00059
798.49556,0.00059
797.53119,0.00068
796.56683,0.00061
795.60246,0.00046
794.63809,0.00050
793.67373,0.00063
792.70936,0.00059
791.74499,0.00044
790.78063,0.00035
789.81626,0.00031
788.85189,0.00021
787.88753,0.00007
786.92316,0.00003
785.95879,0.00014
784.99443,0.00021
784.03006,0.00018
783.06569,0.00020
782.10133,0.00034
781.13696,0.00037
780.17259,0.00023
779.20823,0.00013
778.24386,0.00026
777.27949,0.00044
776.31513,0.00048
775.35076,0.00042
774.38639,0.00035
773.42203,0.00026
772.45766,0.00011
771.49329,0.00004
770.52893,0.00014
769.56456,0.00022
768.60019,0.00015
767.63583,0.00002
766.67146,0.00006
765.70709,0.00023
764.74273,0.00037
763.77836,0.00039
762.81399,0.00032
761.84963,0.00030
760.88526,0.00035
759.92089,0.00040
758.95653,0.00051
757.99216,0.00063
757.02779,0.00068
756.06343,0.00064
755.09906,0.00064
754.13469,0.00072
753.17033,0.00076
752.20596,0.00080
751.24159,0.00095
750.27723,0.00116
749.31286,0.00119
748.34849,0.00108
747.38413,0.00108
746.41976,0.00127
745.45540,0.00137
744.49103,0.00127
743.52666,0.00126
742.56230,0.00140
741.59793,0.00147
740.63356,0.00135
739.66920,0.00128
738.70483,0.00142
737.74046,0.00154
736.77610,0.00147
735.81173,0.00145
734.84736,0.00169
733.88300,0.00197
732.91863,0.00205
731.95426,0.00209
730.98990,0.00222
730.02553,0.00226
729.06116,0.00210
728.09680,0.00190
727.13243,0.00191
726.16806,0.00208
725.20370,0.00212
724.23933,0.00204
723.27496,0.00209
722.31060,0.00225
721.34623,0.00225
720.38186,0.00227
719.41750,0.00246
718.45313,0.00259
717.48876,0.00249
716.52440,0.00241
715.56003,0.00254
714.59566,0.00273
713.63130,0.00275
712.66693,0.00260
711.70256,0.00249
710.73820,0.00250
709.77383,0.00252
708.80946,0.00246
707.84510,0.00244
706.88073,0.00257
705.91636,0.00269
704.95200,0.00262
703.98763,0.00252
703.02326,0.00260
702.05890,0.00268
701.09453,0.00262
700.13016,0.00260
699.16580,0.00265
698.20143,0.00252
697.23706,0.00225
696.27270,0.00221
695.30833,0.00249
694.34396,0.00258
693.37960,0.00226
692.41523,0.00201
691.45086,0.00217
690.48650,0.00245
689.52213,0.00244
688.55776,0.00227
687.59340,0.00228
686.62903,0.00241
685.66466,0.00238
684.70030,0.00217
683.73593,0.00212
682.77157,0.00230
681.80720,0.00238
680.84283,0.00225
679.87847,0.00221
678.91410,0.00238
677.94973,0.00240
676.98537,0.00219
676.02100,0.00218
675.05663,0.00251
674.09227,0.00280
673.12790,0.00278
672.16353,0.00273
671.19917,0.00277
670.23480,0.00282
669.27043,0.00402
668.30607,0.00523
667.34170,0.00518
666.37733,0.00377
665.41297,0.00301
664.44860,0.00306
663.48423,0.00329
662.51987,0.00327
661.55550,0.00303
660.59113,0.00307
659.62677,0.00335
658.66240,0.00346
657.69803,0.00345
656.73367,0.00360
655.76930,0.00392
654.80493,0.00406
653.84057,0.00396
652.87620,0.00405
651.91183,0.00445
650.94747,0.00475
649.98310,0.00471
649.01873,0.00479
648.05437,0.00504
647.09000,0.00495
646.12563,0.00455
645.16127,0.00443
644.19690,0.00468
643.23253,0.00481
642.26817,0.00465
641.30380,0.00445
640.33943,0.00443
639.37507,0.00454
638.41070,0.00452
637.44633,0.00453
636.48197,0.00484
635.51760,0.00517
634.55323,0.00504
633.58887,0.00469
632.62450,0.00477
631.66013,0.00504
630.69577,0.00486
629.73140,0.00446
628.76703,0.00449
627.80267,0.00479
626.83830,0.00483
625.87393,0.00475
624.90957,0.00478
623.94520,0.00491
622.98083,0.00497
622.01647,0.00489
621.05210,0.00490
620.08774,0.00511
619.12337,0.00521
618.15900,0.00494
617.19464,0.00478
616.23027,0.00501
615.26590,0.00513
614.30154,0.00488
613.33717,0.00467
612.37280,0.00479
611.40844,0.00490
610.44407,0.00478
609.47970,0.00470
608.51534,0.00495
607.55097,0.00528
606.58660,0.00525
605.62224,0.00497
604.65787,0.00487
603.69350,0.00485
602.72914,0.00465
601.76477,0.00449
600.80040,0.00466
599.83604,0.00490
598.87167,0.00473
597.90730,0.00433
596.94294,0.00429
595.97857,0.00457
595.01420,0.00456
594.04984,0.00429
593.08547,0.00436
592.12110,0.00473
591.15674,0.00488
590.19237,0.00474
589.22800,0.00462
588.26364,0.00467
587.29927,0.00458
586.33490,0.00424
585.37054,0.00412
584.40617,0.00446
583.44180,0.00470
582.47744,0.00448
581.51307,0.00427
580.54870,0.00438
579.58434,0.00453
578.61997,0.00457
577.65560,0.00470
576.69124,0.00491
575.72687,0.00479
574.76250,0.00441
573.79814,0.00433
572.83377,0.00467
571.86940,0.00473
570.90504,0.00429
569.94067,0.00396
568.97630,0.00405
568.01194,0.00410
567.04757,0.00380
566.08320,0.00377
565.11884,0.00423
564.15447,0.00445
563.19010,0.00407
562.22574,0.00381
561.26137,0.00410
560.29700,0.00422
559.33264,0.00396
558.36827,0.00381
557.40390,0.00386
556.43954,0.00382
555.47517,0.00358
554.51081,0.00358
553.54644,0.00402
552.58207,0.00442
551.61771,0.00428
550.65334,0.00392
549.68897,0.00396
548.72461,0.00419
547.76024,0.00422
546.79587,0.00406
545.83151,0.00396
544.86714,0.00396
543.90277,0.00383
542.93841,0.00364
541.97404,0.00364
541.00967,0.00380
540.04531,0.00371
539.08094,0.00327
538.11657,0.00316
537.15221,0.00360
536.18784,0.00382
535.22347,0.00360
534.25911,0.00357
533.29474,0.00382
532.33037,0.00386
531.36601,0.00376
530.40164,0.00384
529.43727,0.00389
528.47291,0.00371
527.50854,0.00349
526.54417,0.00367
525.57981,0.00404
524.61544,0.00402
523.65107,0.00354
522.68671,0.00302
521.72234,0.00299
520.75797,0.00331
519.79361,0.00333
518.82924,0.00309
517.86487,0.00323
516.90051,0.00383
515.93614,0.00410
514.97177,0.00378
514.00741,0.00354
513.04304,0.00359
512.07867,0.00346
511.11431,0.00302
510.14994,0.00298
509.18557,0.00328
508.22121,0.00318
507.25684,0.00302
506.29247,0.00332
505.32811,0.00362
504.36374,0.00332
503.39937,0.00286
502.43501,0.00283
501.47064,0.00298
500.50627,0.00277
499.54191,0.00223
498.57754,0.00233
497.61317,0.00336
496.64881,0.00385
495.68444,0.00328
494.72007,0.00312
493.75571,0.00380
492.79134,0.00395
491.82698,0.00320
490.86261,0.00282
489.89824,0.00344
488.93388,0.00400
487.96951,0.00337
487.00514,0.00250
486.04078,0.00301
485.07641,0.00393
484.11204,0.00335
483.14768,0.00213
482.18331,0.00205
481.21894,0.00303
480.25458,0.00386
479.29021,0.00429
478.32584,0.00498
477.36148,0.00574
476.39711,0.00556
475.43274,0.00495
474.46838,0.00536
473.50401,0.00626
472.53964,0.00563
471.57528,0.00372
470.61091,0.00260
469.64654,0.00308
468.68218,0.00345
467.71781,0.00307
466.75344,0.00335
465.78908,0.00459
464.82471,0.00491
463.86034,0.00408
462.89598,0.00400
461.93161,0.00469
460.96724,0.00423
460.00288,0.00290
459.03851,0.00403
458.07414,0.00664
457.10978,0.00610
456.14541,0.00240
455.18104,0.00074
454.21668,0.00235
453.25231,0.00349
452.28794,0.00260
451.32358,0.00156
450.35921,0.00214
449.39484,0.00337
448.43048,0.00379
447.46611,0.00417
446.50174,0.00524
445.53738,0.00586
444.57301,0.00488
443.60864,0.00342
442.64428,0.00313
441.67991,0.00297
440.71554,0.00160
439.75118,0.00063
438.78681,0.00222
437.82244,0.00424
436.85808,0.00332
435.89371,0.00173
434.92934,0.00273
433.96498,0.00453
433.00061,0.00411
432.03624,0.00307
431.07188,0.00425
430.10751,0.00552
429.14315,0.00426
428.17878,0.00258
427.21441,0.00368
426.25005,0.00582
425.28568,0.00501
424.32131,0.00266
423.35695,0.00209
422.39258,0.00281
421.42821,0.00370
420.46385,0.00844
419.49948,0.01712
418.53511,0.01950
417.57075,0.01214
416.60638,0.00376
415.64201,0.00343
414.67765,0.00726
413.71328,0.00860
412.74891,0.00610
411.78455,0.00336
410.82018,0.00281
409.85581,0.00257
408.89145,0.00104
407.92708,0.00093
406.96271,0.00433
405.99835,0.00651
405.03398,0.00390
404.06961,0.00097
403.10525,0.00217
402.14088,0.00346
401.17651,0.00207
400.21215,0.00207
399.24778,0.00207
