1900.76660,0.00085
1899.80223,0.00082
1898.83787,0.00079
1897.87350,0.00076
1896.90913,0.00073
1895.94477,0.00069
1894.98040,0.00066
1894.01603,0.00063
1893.05167,0.00060
1892.08730,0.00057
1891.12293,0.00054
1890.15857,0.00051
1889.19420,0.00048
1888.22983,0.00045
1887.26547,0.00042
1886.30110,0.00039
1885.33673,0.00035
1884.37237,0.00032
1883.40800,0.00029
1882.44364,0.00026
1881.47927,0.00023
1880.51490,0.00013
1879.55054,0.00024
1878.58617,0.00043
1877.62180,0.00054
1876.65744,0.00062
1875.69307,0.00058
1874.72870,0.00046
1873.76434,0.00048
1872.79997,0.00068
1871.83560,0.00106
1870.87124,0.00143
1869.90687,0.00126
1868.94250,0.00055
1867.97814,0.00003
1867.01377,0.00025
1866.04940,0.00077
1865.08504,0.00118
1864.12067,0.00133
1863.15630,0.00153
1862.19194,0.00161
1861.22757,0.00151
1860.26320,0.00165
1859.29884,0.00209
1858.33447,0.00239
1857.37010,0.00237
1856.40574,0.00253
1855.44137,0.00286
1854.47700,0.00304
1853.51264,0.00324
1852.54827,0.00375
1851.58390,0.00443
1850.61954,0.00480
1849.65517,0.00491
1848.69080,0.00497
1847.72644,0.00521
1846.76207,0.00593
1845.79770,0.00679
1844.83334,0.00681
1843.86897,0.00662
1842.90460,0.00712
1841.94024,0.00804
1840.97587,0.00857
1840.01150,0.00906
1839.04714,0.00976
1838.08277,0.01031
1837.11840,0.01072
1836.15404,0.01126
1835.18967,0.01186
1834.22530,0.01245
1833.26094,0.01299
1832.29657,0.01378
1831.33220,0.01457
1830.36784,0.01483
1829.40347,0.01504
1828.43910,0.01562
1827.47474,0.01652
1826.51037,0.01697
1825.54600,0.01709
1824.58164,0.01735
1823.61727,0.01791
1822.65290,0.01862
1821.68854,0.01911
1820.72417,0.01954
1819.75981,0.01990
1818.79544,0.02013
1817.83107,0.02027
1816.86671,0.02046
1815.90234,0.02079
1814.93797,0.02112
1813.97361,0.02149
1813.00924,0.02190
1812.04487,0.02220
1811.08051,0.02215
1810.11614,0.02203
1809.15177,0.02224
1808.18741,0.02259
1807.22304,0.02287
1806.25867,0.02303
1805.29431,0.02324
1804.32994,0.02348
1803.36557,0.02361
1802.40121,0.02356
1801.43684,0.02358
1800.47247,0.02378
1799.50811,0.02392
1798.54374,0.02425
1797.57937,0.02486
1796.61501,0.02532
1795.65064,0.02573
1794.68627,0.02658
1793.72191,0.02736
1792.75754,0.02729
1791.79317,0.02718
1790.82881,0.02773
1789.86444,0.02890
1788.90007,0.02996
1787.93571,0.03090
1786.97134,0.03195
1786.00697,0.03279
1785.04261,0.03358
1784.07824,0.03460
1783.11387,0.03607
1782.14951,0.03739
1781.18514,0.03829
1780.22077,0.03940
1779.25641,0.04074
1778.29204,0.04233
1777.32767,0.04379
1776.36331,0.04511
1775.39894,0.04660
1774.43457,0.04857
1773.47021,0.05042
1772.50584,0.05133
1771.54147,0.05241
1770.57711,0.05455
1769.61274,0.05711
1768.64837,0.05889
1767.68401,0.06051
1766.71964,0.06263
1765.75527,0.06500
1764.79091,0.06724
1763.82654,0.06928
1762.86217,0.07113
1761.89781,0.07257
1760.93344,0.07429
1759.96907,0.07662
1759.00471,0.07901
1758.04034,0.08109
1757.07597,0.08267
1756.11161,0.08454
1755.14724,0.08656
1754.18288,0.08859
1753.21851,0.09061
1752.25414,0.09210
1751.28978,0.09345
1750.32541,0.09496
1749.36104,0.09698
1748.39668,0.09864
1747.43231,0.10010
1746.46794,0.10184
1745.50358,0.10366
1744.53921,0.10539
1743.57484,0.10644
1742.61048,0.10755
1741.64611,0.10928
1740.68174,0.11068
1739.71738,0.11125
1738.75301,0.11184
1737.78864,0.11326
1736.82428,0.11472
1735.85991,0.11616
1734.89554,0.11622
1733.93118,0.11527
1732.96681,0.11496
1732.00244,0.11624
1731.03808,0.11724
1730.07371,0.11709
1729.10934,0.11689
1728.14498,0.11693
1727.18061,0.11690
1726.21624,0.11660
1725.25188,0.11626
1724.28751,0.11580
1723.32314,0.11500
1722.35878,0.11431
1721.39441,0.11368
1720.43004,0.11331
1719.46568,0.11286
1718.50131,0.11081
1717.53694,0.10854
1716.57258,0.10741
1715.60821,0.10704
1714.64384,0.10549
1713.67948,0.10407
1712.71511,0.10336
1711.75074,0.10247
1710.78638,0.10096
1709.82201,0.09918
1708.85764,0.09782
1707.89328,0.09653
1706.92891,0.09482
1705.96454,0.09276
1705.00018,0.09071
1704.03581,0.08887
1703.07144,0.08755
1702.10708,0.08785
1701.14271,0.08512
1700.17834,0.08050
1699.21398,0.07727
1698.24961,0.07793
1697.28524,0.07796
1696.32088,0.07494
1695.35651,0.07160
1694.39214,0.06989
1693.42778,0.06974
1692.46341,0.06850
1691.49905,0.06676
1690.53468,0.06510
1689.57031,0.06335
1688.60595,0.06154
1687.64158,0.05998
1686.67721,0.05935
1685.71285,0.05851
1684.74848,0.05531
1683.78411,0.05172
1682.81975,0.05035
1681.85538,0.05092
1680.89101,0.05024
1679.92665,0.04883
1678.96228,0.04750
1677.99791,0.04681
1677.03355,0.04640
1676.06918,0.04493
1675.10481,0.04290
1674.14045,0.04170
1673.17608,0.04191
1672.21171,0.04136
1671.24735,0.04037
1670.28298,0.03939
1669.31861,0.03815
1668.35425,0.03724
1667.38988,0.03730
1666.42551,0.03766
1665.46115,0.03746
1664.49678,0.03738
1663.53241,0.03690
1662.56805,0.03609
1661.60368,0.03582
1660.63931,0.03621
1659.67495,0.03660
1658.71058,0.03662
1657.74621,0.03675
1656.78185,0.03704
1655.81748,0.03755
1654.85311,0.03824
1653.88875,0.03677
1652.92438,0.03537
1651.96001,0.03573
1650.99565,0.03853
1650.03128,0.04035
1649.06691,0.04134
1648.10255,0.04193
1647.13818,0.04240
1646.17381,0.04307
1645.20945,0.04421
1644.24508,0.04610
1643.28071,0.04794
1642.31635,0.04952
1641.35198,0.05088
1640.38761,0.05236
1639.42325,0.05409
1638.45888,0.05586
1637.49451,0.05798
1636.53015,0.05966
1635.56578,0.06096
1634.60141,0.06266
1633.63705,0.06552
1632.67268,0.06859
1631.70831,0.07098
1630.74395,0.07327
1629.77958,0.07556
1628.81522,0.07769
1627.85085,0.07963
1626.88648,0.08176
1625.92212,0.08424
1624.95775,0.08661
1623.99338,0.08818
1623.02902,0.08945
1622.06465,0.09110
1621.10028,0.09308
1620.13592,0.09463
1619.17155,0.09580
1618.20718,0.09694
1617.24282,0.09672
1616.27845,0.09614
1615.31408,0.09631
1614.34972,0.09738
1613.38535,0.09771
1612.42098,0.09747
1611.45662,0.09729
1610.49225,0.09688
1609.52788,0.09633
1608.56352,0.09576
1607.59915,0.09529
1606.63478,0.09479
1605.67042,0.09426
1604.70605,0.09388
1603.74168,0.09338
1602.77732,0.09292
1601.81295,0.09248
1600.84858,0.09211
1599.88422,0.09180
1598.91985,0.09158
1597.95548,0.09136
1596.99112,0.09108
1596.02675,0.09092
1595.06238,0.09073
1594.09802,0.09068
1593.13365,0.09069
1592.16928,0.09072
1591.20492,0.09063
1590.24055,0.09047
1589.27618,0.09041
1588.31182,0.09034
1587.34745,0.09029
1586.38308,0.09010
1585.41872,0.08995
1584.45435,0.08982
1583.48998,0.08963
1582.52562,0.08938
1581.56125,0.08896
1580.59688,0.08857
1579.63252,0.08803
1578.66815,0.08771
1577.70378,0.08746
1576.73942,0.08599
1575.77505,0.08431
1574.81068,0.08349
1573.84632,0.08369
1572.88195,0.08305
1571.91758,0.08237
1570.95322,0.08145
1569.98885,0.07940
1569.02448,0.07737
1568.06012,0.07636
1567.09575,0.07619
1566.13139,0.07508
1565.16702,0.07331
1564.20265,0.07148
1563.23829,0.07009
1562.27392,0.06931
1561.30955,0.06823
1560.34519,0.06571
1559.38082,0.06205
1558.41645,0.05888
1557.45209,0.05773
1556.48772,0.05789
1555.52335,0.05770
1554.55899,0.05550
1553.59462,0.05309
1552.63025,0.05176
1551.66589,0.05098
1550.70152,0.04900
1549.73715,0.04664
1548.77279,0.04487
1547.80842,0.04369
1546.84405,0.04253
1545.87969,0.04036
1544.91532,0.03810
1543.95095,0.03658
1542.98659,0.03522
1542.02222,0.03333
1541.05785,0.03126
1540.09349,0.02888
1539.12912,0.02634
1538.16475,0.02525
1537.20039,0.02539
1536.23602,0.02493
1535.27165,0.02383
1534.30729,0.02177
1533.34292,0.01969
1532.37855,0.01825
1531.41419,0.01780
1530.44982,0.01710
1529.48545,0.01608
1528.52109,0.01479
1527.55672,0.01354
1526.59235,0.01249
1525.62799,0.01116
1524.66362,0.01023
1523.69925,0.00984
1522.73489,0.00905
1521.77052,0.00737
1520.80615,0.00576
1519.84179,0.00555
1518.87742,0.00598
1517.91305,0.00561
1516.94869,0.00450
1515.98432,0.00389
1515.01995,0.00413
1514.05559,0.00421
1513.09122,0.00392
1512.12685,0.00339
1511.16249,0.00318
1510.19812,0.00312
1509.23375,0.00293
1508.26939,0.00254
1507.30502,0.00142
1506.34065,0.00059
1505.37629,0.00091
1504.41192,0.00242
1503.44756,0.00340
1502.48319,0.00377
1501.51882,0.00393
1500.55446,0.00419
1499.59009,0.00428
1498.62572,0.00426
1497.66136,0.00459
1496.69699,0.00483
1495.73262,0.00513
1494.76826,0.00581
1493.80389,0.00674
1492.83952,0.00741
1491.87516,0.00780
1490.91079,0.00784
1489.94642,0.00788
1488.98206,0.00862
1488.01769,0.00958
1487.05332,0.01022
1486.08896,0.01090
1485.12459,0.01174
1484.16022,0.01262
1483.19586,0.01335
1482.23149,0.01403
1481.26712,0.01468
1480.30276,0.01544
1479.33839,0.01638
1478.37402,0.01738
1477.40966,0.01819
1476.44529,0.01866
1475.48092,0.01948
1474.51656,0.02060
1473.55219,0.02127
1472.58782,0.02162
1471.62346,0.02261
1470.65909,0.02450
1469.69472,0.02628
1468.73036,0.02776
1467.76599,0.02904
1466.80162,0.03041
1465.83726,0.03150
1464.87289,0.03237
1463.90852,0.03378
1462.94416,0.03556
1461.97979,0.03734
1461.01542,0.03883
1460.05106,0.04020
1459.08669,0.04165
1458.12232,0.04294
1457.15796,0.04433
1456.19359,0.04574
1455.22922,0.04778
1454.26486,0.05001
1453.30049,0.05213
1452.33612,0.05401
1451.37176,0.05572
1450.40739,0.05764
1449.44302,0.05954
1448.47866,0.06134
1447.51429,0.06314
1446.54992,0.06523
1445.58556,0.06742
1444.62119,0.06942
1443.65682,0.07144
1442.69246,0.07338
1441.72809,0.07545
1440.76373,0.07750
1439.79936,0.07955
1438.83499,0.08168
1437.87063,0.08329
1436.90626,0.08447
1435.94189,0.08608
1434.97753,0.08867
1434.01316,0.09106
1433.04879,0.09299
1432.08443,0.09499
1431.12006,0.09691
1430.15569,0.09862
1429.19133,0.10036
1428.22696,0.10241
1427.26259,0.10428
1426.29823,0.10609
1425.33386,0.10774
1424.36949,0.10912
1423.40513,0.11060
1422.44076,0.11237
1421.47639,0.11446
1420.51203,0.11585
1419.54766,0.11661
1418.58329,0.11761
1417.61893,0.11930
1416.65456,0.12122
1415.69019,0.12268
1414.72583,0.12420
1413.76146,0.12566
1412.79709,0.12699
1411.83273,0.12810
1410.86836,0.12912
1409.90399,0.13033
1408.93963,0.13157
1407.97526,0.13288
1407.01089,0.13406
1406.04653,0.13500
1405.08216,0.13577
1404.11779,0.13680
1403.15343,0.13814
1402.18906,0.13936
1401.22469,0.14053
1400.26033,0.14134
1399.29596,0.14182
1398.33159,0.14243
1397.36723,0.14359
1396.40286,0.14477
1395.43849,0.14519
1394.47413,0.14553
1393.50976,0.14643
1392.54539,0.14788
1391.58103,0.14896
1390.61666,0.14972
1389.65229,0.15071
1388.68793,0.15161
1387.72356,0.15202
1386.75919,0.15237
1385.79483,0.15322
1384.83046,0.15422
1383.86609,0.15498
1382.90173,0.15573
1381.93736,0.15657
1380.97299,0.15733
1380.00863,0.15795
1379.04426,0.15847
1378.07989,0.15894
1377.11553,0.15956
1376.15116,0.16025
1375.18680,0.16075
1374.22243,0.16101
1373.25806,0.16146
1372.29370,0.16226
1371.32933,0.16305
1370.36496,0.16371
1369.40060,0.16411
1368.43623,0.16444
1367.47186,0.16486
1366.50750,0.16538
1365.54313,0.16602
1364.57876,0.16647
1363.61440,0.16657
1362.65003,0.16649
1361.68566,0.16674
1360.72130,0.16729
1359.75693,0.16781
1358.79256,0.16826
1357.82820,0.16860
1356.86383,0.16898
1355.89946,0.16928
1354.93510,0.16948
1353.97073,0.16965
1353.00636,0.16989
1352.04200,0.17018
1351.07763,0.17040
1350.11326,0.17048
1349.14890,0.17044
1348.18453,0.17058
1347.22016,0.17085
1346.25580,0.17110
1345.29143,0.17119
1344.32706,0.17111
1343.36270,0.17111
1342.39833,0.17124
1341.43396,0.17137
1340.46960,0.17120
1339.50523,0.17096
1338.54086,0.17101
1337.57650,0.17130
1336.61213,0.17157
1335.64776,0.17173
1334.68340,0.17187
1333.71903,0.17189
1332.75466,0.17193
1331.79030,0.17207
1330.82593,0.17225
1329.86156,0.17241
1328.89720,0.17264
1327.93283,0.17301
1326.96846,0.17330
1326.00410,0.17350
1325.03973,0.17369
1324.07536,0.17401
1323.11100,0.17437
1322.14663,0.17471
1321.18226,0.17504
1320.21790,0.17526
1319.25353,0.17550
1318.28916,0.17584
1317.32480,0.17635
1316.36043,0.17696
1315.39606,0.17759
1314.43170,0.17815
1313.46733,0.17854
1312.50297,0.17904
1311.53860,0.17961
1310.57423,0.18023
1309.60987,0.18089
1308.64550,0.18154
1307.68113,0.18219
1306.71677,0.18281
1305.75240,0.18352
1304.78803,0.18425
1303.82367,0.18505
1302.85930,0.18582
1301.89493,0.18649
1300.93057,0.18716
1299.96620,0.18791
1299.00183,0.18876
1298.03747,0.18944
1297.07310,0.19002
1296.10873,0.19068
1295.14437,0.19144
1294.18000,0.19219
1293.21563,0.19286
1292.25127,0.19357
1291.28690,0.19426
1290.32253,0.19501
1289.35817,0.19576
1288.39380,0.19641
1287.42943,0.19701
1286.46507,0.19757
1285.50070,0.19818
1284.53633,0.19879
1283.57197,0.19948
1282.60760,0.20015
1281.64323,0.20078
1280.67887,0.20136
1279.71450,0.20187
1278.75013,0.20239
1277.78577,0.20295
1276.82140,0.20356
1275.85703,0.20407
1274.89267,0.20450
1273.92830,0.20489
1272.96393,0.20530
1271.99957,0.20569
1271.03520,0.20598
1270.07083,0.20636
1269.10647,0.20683
1268.14210,0.20732
1267.17773,0.20776
1266.21337,0.20818
1265.24900,0.20865
1264.28463,0.20903
1263.32027,0.20937
1262.35590,0.20969
1261.39153,0.21006
1260.42717,0.21039
1259.46280,0.21070
1258.49843,0.21113
1257.53407,0.21160
1256.56970,0.21208
1255.60533,0.21254
1254.64097,0.21303
1253.67660,0.21350
1252.71223,0.21393
1251.74787,0.21439
1250.78350,0.21488
1249.81914,0.21544
1248.85477,0.21609
1247.89040,0.21683
1246.92604,0.21755
1245.96167,0.21819
1244.99730,0.21880
1244.03294,0.21945
1243.06857,0.22016
1242.10420,0.22082
1241.13984,0.22150
1240.17547,0.22230
1239.21110,0.22323
1238.24674,0.22414
1237.28237,0.22510
1236.31800,0.22615
1235.35364,0.22704
1234.38927,0.22774
1233.42490,0.22851
1232.46054,0.22953
1231.49617,0.23056
1230.53180,0.23148
1229.56744,0.23232
1228.60307,0.23320
1227.63870,0.23420
1226.67434,0.23509
1225.70997,0.23579
1224.74560,0.23640
1223.78124,0.23707
1222.81687,0.23769
1221.85250,0.23809
1220.88814,0.23830
1219.92377,0.23844
1218.95940,0.23867
1217.99504,0.23887
1217.03067,0.23892
1216.06630,0.23881
1215.10194,0.23870
1214.13757,0.23863
1213.17320,0.23837
1212.20884,0.23800
1211.24447,0.23771
1210.28010,0.23747
1209.31574,0.23715
1208.35137,0.23681
1207.38700,0.23660
1206.42264,0.23650
1205.45827,0.23637
1204.49390,0.23612
1203.52954,0.23584
1202.56517,0.23570
1201.60080,0.23557
1200.63644,0.23540
1199.67207,0.23530
1198.70770,0.23528
1197.74334,0.23517
1196.77897,0.23506
1195.81460,0.23512
1194.85024,0.23529
1193.88587,0.23541
1192.92150,0.23541
1191.95714,0.23537
1190.99277,0.23551
1190.02840,0.23583
1189.06404,0.23600
1188.09967,0.23607
1187.13531,0.23624
1186.17094,0.23661
1185.20657,0.23697
1184.24221,0.23720
1183.27784,0.23745
1182.31347,0.23779
1181.34911,0.23810
1180.38474,0.23829
1179.42037,0.23861
1178.45601,0.23910
1177.49164,0.23951
1176.52727,0.23981
1175.56291,0.24006
1174.59854,0.24030
1173.63417,0.24060
1172.66981,0.24100
1171.70544,0.24124
1170.74107,0.24131
1169.77671,0.24141
1168.81234,0.24148
1167.84797,0.24141
1166.88361,0.24122
1165.91924,0.24104
1164.95487,0.24095
1163.99051,0.24100
1163.02614,0.24102
1162.06177,0.24077
1161.09741,0.24048
1160.13304,0.24034
1159.16867,0.24019
1158.20431,0.23977
1157.23994,0.23926
1156.27557,0.23883
1155.31121,0.23841
1154.34684,0.23801
1153.38247,0.23757
1152.41811,0.23715
1151.45374,0.23690
1150.48937,0.23676
1149.52501,0.23648
1148.56064,0.23602
1147.59627,0.23555
1146.63191,0.23505
1145.66754,0.23457
1144.70317,0.23417
1143.73881,0.23392
1142.77444,0.23380
1141.81007,0.23371
1140.84571,0.23351
1139.88134,0.23316
1138.91697,0.23296
1137.95261,0.23295
1136.98824,0.23292
1136.02387,0.23269
1135.05951,0.23252
1134.09514,0.23263
1133.13077,0.23281
1132.16641,0.23293
1131.20204,0.23301
1130.23767,0.23323
1129.27331,0.23358
1128.30894,0.23391
1127.34457,0.23414
1126.38021,0.23439
1125.41584,0.23483
1124.45148,0.23519
1123.48711,0.23539
1122.52274,0.23578
1121.55838,0.23649
1120.59401,0.23726
1119.62964,0.23789
1118.66528,0.23848
1117.70091,0.23906
1116.73654,0.23980
1115.77218,0.24080
1114.80781,0.24187
1113.84344,0.24272
1112.87908,0.24332
1111.91471,0.24395
1110.95034,0.24484
1109.98598,0.24607
1109.02161,0.24743
1108.05724,0.24873
1107.09288,0.24994
1106.12851,0.25108
1105.16414,0.25232
1104.19978,0.25368
1103.23541,0.25506
1102.27104,0.25645
1101.30668,0.25808
1100.34231,0.26001
1099.37794,0.26203
1098.41358,0.26404
1097.44921,0.26598
1096.48484,0.26796
1095.52048,0.27001
1094.55611,0.27207
1093.59174,0.27418
1092.62738,0.27639
1091.66301,0.27859
1090.69864,0.28072
1089.73428,0.28296
1088.76991,0.28546
1087.80554,0.28822
1086.84118,0.29092
1085.87681,0.29337
1084.91244,0.29578
1083.94808,0.29838
1082.98371,0.30120
1082.01934,0.30412
1081.05498,0.30699
1080.09061,0.30959
1079.12624,0.31226
1078.16188,0.31531
1077.19751,0.31851
1076.23314,0.32166
1075.26878,0.32474
1074.30441,0.32776
1073.34004,0.33071
1072.37568,0.33373
1071.41131,0.33687
1070.44694,0.34021
1069.48258,0.34384
1068.51821,0.34749
1067.55384,0.35106
1066.58948,0.35478
1065.62511,0.35868
1064.66074,0.36255
1063.69638,0.36651
1062.73201,0.37068
1061.76765,0.37485
1060.80328,0.37888
1059.83891,0.38315
1058.87455,0.38795
1057.91018,0.39295
1056.94581,0.39766
1055.98145,0.40186
1055.01708,0.40571
1054.05271,0.40935
1053.08835,0.41293
1052.12398,0.41639
1051.15961,0.41933
1050.19525,0.42147
1049.23088,0.42284
1048.26651,0.42381
1047.30215,0.42418
1046.33778,0.42360
1045.37341,0.42224
1044.40905,0.42066
1043.44468,0.41911
1042.48031,0.41709
1041.51595,0.41443
1040.55158,0.41123
1039.58721,0.40761
1038.62285,0.40363
1037.65848,0.39921
1036.69411,0.39438
1035.72975,0.38929
1034.76538,0.38433
1033.80101,0.37943
1032.83665,0.37432
1031.87228,0.36892
1030.90791,0.36321
1029.94355,0.35744
1028.97918,0.35170
1028.01481,0.34597
1027.05045,0.34019
1026.08608,0.33447
1025.12171,0.32886
1024.15735,0.32323
1023.19298,0.31773
1022.22861,0.31237
1021.26425,0.30714
1020.29988,0.30191
1019.33551,0.29670
1018.37115,0.29177
1017.40678,0.28736
1016.44241,0.28338
1015.47805,0.27931
1014.51368,0.27509
1013.54931,0.27118
1012.58495,0.26785
1011.62058,0.26476
1010.65621,0.26171
1009.69185,0.25892
1008.72748,0.25639
1007.76311,0.25391
1006.79875,0.25160
1005.83438,0.24976
1004.87001,0.24833
1003.90565,0.24695
1002.94128,0.24563
1001.97691,0.24452
1001.01255,0.24357
1000.04818,0.24265
999.08382,0.24173
998.11945,0.24088
997.15508,0.24015
996.19072,0.23947
995.22635,0.23875
994.26198,0.23796
993.29762,0.23724
992.33325,0.23670
991.36888,0.23629
990.40452,0.23580
989.44015,0.23506
988.47578,0.23407
987.51142,0.23293
986.54705,0.23182
985.58268,0.23084
984.61832,0.22977
983.65395,0.22853
982.68958,0.22720
981.72522,0.22580
980.76085,0.22434
979.79648,0.22282
978.83212,0.22124
977.86775,0.21963
976.90338,0.21795
975.93902,0.21605
974.97465,0.21397
974.01028,0.21203
973.04592,0.21022
972.08155,0.20830
971.11718,0.20621
970.15282,0.20394
969.18845,0.20145
968.22408,0.19890
967.25972,0.19648
966.29535,0.19409
965.33098,0.19152
964.36662,0.18893
963.40225,0.18649
962.43788,0.18395
961.47352,0.18119
960.50915,0.17843
959.54478,0.17586
958.58042,0.17331
957.61605,0.17069
956.65168,0.16802
955.68732,0.16532
954.72295,0.16264
953.75858,0.15994
952.79422,0.15729
951.82985,0.15468
950.86548,0.15202
949.90112,0.14943
948.93675,0.14703
947.97238,0.14462
947.00802,0.14201
946.04365,0.13942
945.07928,0.13694
944.11492,0.13448
943.15055,0.13206
942.18618,0.12959
941.22182,0.12697
940.25745,0.12434
939.29308,0.12192
938.32872,0.11959
937.36435,0.11721
936.39998,0.11487
935.43562,0.11262
934.47125,0.11027
933.50689,0.10775
932.54252,0.10529
931.57815,0.10310
930.61379,0.10103
929.64942,0.09892
928.68505,0.09673
927.72069,0.09450
926.75632,0.09226
925.79195,0.09011
924.82759,0.08815
923.86322,0.08632
922.89885,0.08442
921.93449,0.08242
920.97012,0.08049
920.00575,0.07873
919.04139,0.07710
918.07702,0.07539
917.11265,0.07364
916.14829,0.07202
915.18392,0.07064
914.21955,0.06937
913.25519,0.06808
912.29082,0.06683
911.32645,0.06561
910.36209,0.06447
909.39772,0.06346
908.43335,0.06254
907.46899,0.06163
906.50462,0.06069
905.54025,0.05988
904.57589,0.05929
903.61152,0.05875
902.64715,0.05815
901.68279,0.05765
900.71842,0.05741
899.75405,0.05713
898.78969,0.05670
897.82532,0.05645
896.86095,0.05647
895.89659,0.05653
894.93222,0.05645
893.96785,0.05618
893.00349,0.05583
892.03912,0.05575
891.07475,0.05605
890.11039,0.05642
889.14602,0.05649
888.18165,0.05634
887.21729,0.05631
886.25292,0.05660
885.28855,0.05695
884.32419,0.05717
883.35982,0.05740
882.39545,0.05772
881.43109,0.05792
880.46672,0.05796
879.50235,0.05804
878.53799,0.05821
877.57362,0.05834
876.60925,0.05840
875.64489,0.05847
874.68052,0.05855
873.71615,0.05853
872.75179,0.05843
871.78742,0.05839
870.82306,0.05854
869.85869,0.05880
868.89432,0.05890
867.92996,0.05876
866.96559,0.05868
866.00122,0.05870
865.03686,0.05847
864.07249,0.05807
863.10812,0.05800
862.14376,0.05809
861.17939,0.05780
860.21502,0.05718
859.25066,0.05670
858.28629,0.05643
857.32192,0.05615
856.35756,0.05576
855.39319,0.05521
854.42882,0.05462
853.46446,0.05412
852.50009,0.05366
851.53572,0.05304
850.57136,0.05225
849.60699,0.05156
848.64262,0.05100
847.67826,0.05047
846.71389,0.04982
845.74952,0.04904
844.78516,0.04822
843.82079,0.04735
842.85642,0.04640
841.89206,0.04534
840.92769,0.04439
839.96332,0.04370
838.99896,0.04309
838.03459,0.04227
837.07022,0.04116
836.10586,0.03996
835.14149,0.03890
834.17712,0.03803
833.21276,0.03730
832.24839,0.03656
831.28402,0.03560
830.31966,0.03450
829.35529,0.03351
828.39092,0.03267
827.42656,0.03184
826.46219,0.03096
825.49782,0.03005
824.53346,0.02914
823.56909,0.02824
822.60472,0.02733
821.64036,0.02640
820.67599,0.02554
819.71162,0.02476
818.74726,0.02399
817.78289,0.02315
816.81852,0.02229
815.85416,0.02157
814.88979,0.02084
813.92542,0.01996
812.96106,0.01902
811.99669,0.01819
811.03232,0.01754
810.06796,0.01687
809.10359,0.01608
808.13923,0.01541
807.17486,0.01496
806.21049,0.01447
805.24613,0.01373
804.28176,0.01303
803.31739,0.01256
802.35303,0.01215
801.38866,0.01168
800.42429,0.01111
799.45993,0.01051
798.49556,0.00998
797.53119,0.00961
796.56683,0.00934
795.60246,0.00902
794.63809,0.00866
793.67373,0.00816
792.70936,0.00753
791.74499,0.00698
790.78063,0.00658
789.81626,0.00628
788.85189,0.00600
787.88753,0.00571
786.92316,0.00536
785.95879,0.00490
784.99443,0.00452
784.03006,0.00435
783.06569,0.00428
782.10133,0.00411
781.13696,0.00387
780.17259,0.00370
779.20823,0.00361
778.24386,0.00352
777.27949,0.00331
776.31513,0.00307
775.35076,0.00296
774.38639,0.00288
773.42203,0.00272
772.45766,0.00255
771.49329,0.00249
770.52893,0.00248
769.56456,0.00251
768.60019,0.00250
767.63583,0.00232
766.67146,0.00217
765.70709,0.00222
764.74273,0.00237
763.77836,0.00232
762.81399,0.00212
761.84963,0.00203
760.88526,0.00213
759.92089,0.00241
758.95653,0.00264
757.99216,0.00262
757.02779,0.00244
756.06343,0.00236
755.09906,0.00244
754.13469,0.00252
753.17033,0.00254
752.20596,0.00250
751.24159,0.00254
750.27723,0.00272
749.31286,0.00285
748.34849,0.00289
747.38413,0.00298
746.41976,0.00325
745.45540,0.00351
744.49103,0.00360
743.52666,0.00364
742.56230,0.00378
741.59793,0.00402
740.63356,0.00427
739.66920,0.00451
738.70483,0.00464
737.74046,0.00467
736.77610,0.00483
735.81173,0.00521
734.84736,0.00562
733.88300,0.00587
732.91863,0.00604
731.95426,0.00626
730.98990,0.00648
730.02553,0.00663
729.06116,0.00681
728.09680,0.00719
727.13243,0.00770
726.16806,0.00817
725.20370,0.00848
724.23933,0.00872
723.27496,0.00897
722.31060,0.00915
721.34623,0.00926
720.38186,0.00942
719.41750,0.00975
718.45313,0.01012
717.48876,0.01040
716.52440,0.01069
715.56003,0.01093
714.59566,0.01114
713.63130,0.01147
712.66693,0.01190
711.70256,0.01217
710.73820,0.01237
709.77383,0.01269
708.80946,0.01294
707.84510,0.01316
706.88073,0.01358
705.91636,0.01409
704.95200,0.01447
703.98763,0.01477
703.02326,0.01503
702.05890,0.01516
701.09453,0.01518
700.13016,0.01517
699.16580,0.01535
698.20143,0.01587
697.23706,0.01642
696.27270,0.01663
695.30833,0.01655
694.34396,0.01658
693.37960,0.01678
692.41523,0.01698
691.45086,0.01708
690.48650,0.01707
689.52213,0.01725
688.55776,0.01768
687.59340,0.01808
686.62903,0.01819
685.66466,0.01807
684.70030,0.01816
683.73593,0.01859
682.77157,0.01906
681.80720,0.01928
680.84283,0.01931
679.87847,0.01932
678.91410,0.01945
677.94973,0.01978
676.98537,0.02016
676.02100,0.02048
675.05663,0.02079
674.09227,0.02107
673.12790,0.02123
672.16353,0.02136
671.19917,0.02147
670.23480,0.02144
669.27043,0.02116
668.30607,0.02104
667.34170,0.02152
666.37733,0.02247
665.41297,0.02315
664.44860,0.02330
663.48423,0.02326
662.51987,0.02349
661.55550,0.02396
660.59113,0.02433
659.62677,0.02455
658.66240,0.02484
657.69803,0.02521
656.73367,0.02537
655.76930,0.02541
654.80493,0.02550
653.84057,0.02575
652.87620,0.02605
651.91183,0.02624
650.94747,0.02637
649.98310,0.02657
649.01873,0.02695
648.05437,0.02740
647.09000,0.02775
646.12563,0.02805
645.16127,0.02839
644.19690,0.02876
643.23253,0.02906
642.26817,0.02937
641.30380,0.02984
640.33943,0.03031
639.37507,0.03060
638.41070,0.03076
637.44633,0.03120
636.48197,0.03203
635.51760,0.03289
634.55323,0.03362
633.58887,0.03406
632.62450,0.03404
631.66013,0.03397
630.69577,0.03455
629.73140,0.03554
628.76703,0.03627
627.80267,0.03678
626.83830,0.03731
625.87393,0.03773
624.90957,0.03806
623.94520,0.03859
622.98083,0.03942
622.01647,0.04030
621.05210,0.04100
620.08774,0.04167
619.12337,0.04241
618.15900,0.04310
617.19464,0.04382
616.23027,0.04472
615.26590,0.04563
614.30154,0.04635
613.33717,0.04713
612.37280,0.04803
611.40844,0.04898
610.44407,0.05016
609.47970,0.05154
608.51534,0.05278
607.55097,0.05377
606.58660,0.05472
605.62224,0.05579
604.65787,0.05703
603.69350,0.05841
602.72914,0.05967
601.76477,0.06072
600.80040,0.06171
599.83604,0.06278
598.87167,0.06398
597.90730,0.06529
596.94294,0.06660
595.97857,0.06804
595.01420,0.06974
594.04984,0.07126
593.08547,0.07238
592.12110,0.07345
591.15674,0.07459
590.19237,0.07574
589.22800,0.07724
588.26364,0.07911
587.29927,0.08055
586.33490,0.08151
585.37054,0.08249
584.40617,0.08331
583.44180,0.08363
582.47744,0.08360
581.51307,0.08351
580.54870,0.08339
579.58434,0.08328
578.61997,0.08289
577.65560,0.08181
576.69124,0.08031
575.72687,0.07897
574.76250,0.07782
573.79814,0.07663
572.83377,0.07536
571.86940,0.07383
570.90504,0.07193
569.94067,0.07001
568.97630,0.06832
568.01194,0.06682
567.04757,0.06531
566.08320,0.06352
565.11884,0.06158
564.15447,0.06003
563.19010,0.05880
562.22574,0.05740
561.26137,0.05594
560.29700,0.05483
559.33264,0.05381
558.36827,0.05276
557.40390,0.05212
556.43954,0.05189
555.47517,0.05150
554.51081,0.05057
553.54644,0.04947
552.58207,0.04843
551.61771,0.04735
550.65334,0.04663
549.68897,0.04672
548.72461,0.04714
547.76024,0.04675
546.79587,0.04566
545.83151,0.04505
544.86714,0.04507
543.90277,0.04506
542.93841,0.04471
541.97404,0.04421
541.00967,0.04362
540.04531,0.04288
539.08094,0.04254
538.11657,0.04279
537.15221,0.04296
536.18784,0.04238
535.22347,0.04147
534.25911,0.04134
533.29474,0.04187
532.33037,0.04205
531.36601,0.04175
530.40164,0.04146
529.43727,0.04123
528.47291,0.04078
527.50854,0.04018
526.54417,0.03956
525.57981,0.03921
524.61544,0.03959
523.65107,0.04029
522.68671,0.04068
521.72234,0.04064
520.75797,0.04031
519.79361,0.03992
518.82924,0.03942
517.86487,0.03885
516.90051,0.03837
515.93614,0.03826
514.97177,0.03853
514.00741,0.03873
513.04304,0.03853
512.07867,0.03806
511.11431,0.03795
510.14994,0.03815
509.18557,0.03809
508.22121,0.03784
507.25684,0.03767
506.29247,0.03743
505.32811,0.03718
504.36374,0.03708
503.39937,0.03661
502.43501,0.03609
501.47064,0.03613
500.50627,0.03656
499.54191,0.03696
498.57754,0.03710
497.61317,0.03688
496.64881,0.03676
495.68444,0.03743
494.72007,0.03800
493.75571,0.03738
492.79134,0.03621
491.82698,0.03546
490.86261,0.03520
489.89824,0.03463
488.93388,0.03410
487.96951,0.03420
487.00514,0.03406
486.04078,0.03290
485.07641,0.03174
484.11204,0.03216
483.14768,0.03364
482.18331,0.03523
481.21894,0.03638
480.25458,0.03664
479.29021,0.03577
478.32584,0.03383
477.36148,0.03201
476.39711,0.03152
475.43274,0.03232
474.46838,0.03249
473.50401,0.03131
472.53964,0.03113
471.57528,0.03240
470.61091,0.03391
469.64654,0.03421
468.68218,0.03340
467.71781,0.03204
466.75344,0.03121
465.78908,0.03180
464.82471,0.03274
463.86034,0.03324
462.89598,0.03324
461.93161,0.03337
460.96724,0.03400
460.00288,0.03436
459.03851,0.03367
458.07414,0.03238
457.10978,0.03237
456.14541,0.03352
455.18104,0.03380
454.21668,0.03247
453.25231,0.03073
452.28794,0.03064
451.32358,0.03223
450.35921,0.03372
449.39484,0.03350
448.43048,0.03257
447.46611,0.03258
446.50174,0.03272
445.53738,0.03240
444.57301,0.03166
443.60864,0.03075
442.64428,0.02964
441.67991,0.02939
440.71554,0.03107
439.75118,0.03211
438.78681,0.03090
437.82244,0.02928
436.85808,0.02843
435.89371,0.02804
434.92934,0.02762
433.96498,0.02694
433.00061,0.02558
432.03624,0.02445
431.07188,0.02467
430.10751,0.02554
429.14315,0.02512
428.17878,0.02280
427.21441,0.02010
426.25005,0.01819
425.28568,0.01722
424.32131,0.01769
423.35695,0.01986
422.39258,0.02156
421.42821,0.02148
420.46385,0.01993
419.49948,0.01650
418.53511,0.01301
417.57075,0.01182
416.60638,0.01291
415.64201,0.01397
414.67765,0.01494
413.71328,0.01519
412.74891,0.01358
411.78455,0.01133
410.82018,0.01041
409.85581,0.01054
408.89145,0.01018
407.92708,0.00920
406.96271,0.00798
405.99835,0.00603
405.03398,0.00312
404.06961,0.00071
403.10525,-0.00011
402.14088,0.00102
401.17651,0.00349
400.21215,0.00349
399.24778,0.00349
