3998.31069,0.00458
3997.34631,0.00458
3996.38194,0.00458
3995.41756,0.00458
3994.45318,0.00458
3993.48880,0.00458
3992.52442,0.00458
3991.56005,0.00453
3990.59567,0.00452
3989.63129,0.00448
3988.66691,0.00439
3987.70253,0.00435
3986.73816,0.00432
3985.77378,0.00425
3984.80940,0.00420
3983.84502,0.00416
3982.88065,0.00415
3981.91627,0.00412
3980.95189,0.00407
3979.98751,0.00406
3979.02313,0.00407
3978.05876,0.00405
3977.09438,0.00409
3976.13000,0.00417
3975.16562,0.00422
3974.20124,0.00422
3973.23687,0.00419
3972.27249,0.00421
3971.30811,0.00426
3970.34373,0.00426
3969.37935,0.00426
3968.41498,0.00427
3967.45060,0.00424
3966.48622,0.00423
3965.52184,0.00430
3964.55747,0.00436
3963.59309,0.00437
3962.62871,0.00435
3961.66433,0.00428
3960.69995,0.00422
3959.73558,0.00420
3958.77120,0.00423
3957.80682,0.00431
3956.84244,0.00434
3955.87806,0.00430
3954.91369,0.00430
3953.94931,0.00438
3952.98493,0.00444
3952.02055,0.00446
3951.05618,0.00448
3950.09180,0.00443
3949.12742,0.00437
3948.16304,0.00439
3947.19866,0.00448
3946.23429,0.00454
3945.26991,0.00457
3944.30553,0.00458
3943.34115,0.00462
3942.37677,0.00471
3941.41240,0.00478
3940.44802,0.00483
3939.48364,0.00482
3938.51926,0.00473
3937.55488,0.00462
3936.59051,0.00455
3935.62613,0.00458
3934.66175,0.00459
3933.69737,0.00453
3932.73300,0.00446
3931.76862,0.00443
3930.80424,0.00448
3929.83986,0.00455
3928.87548,0.00461
3927.91111,0.00464
3926.94673,0.00470
3925.98235,0.00482
3925.01797,0.00498
3924.05359,0.00513
3923.08922,0.00517
3922.12484,0.00513
3921.16046,0.00506
3920.19608,0.00499
3919.23171,0.00492
3918.26733,0.00486
3917.30295,0.00486
3916.33857,0.00484
3915.37419,0.00482
3914.40982,0.00486
3913.44544,0.00491
3912.48106,0.00494
3911.51668,0.00495
3910.55230,0.00495
3909.58793,0.00491
3908.62355,0.00484
3907.65917,0.00480
3906.69479,0.00480
3905.73041,0.00483
3904.76604,0.00476
3903.80166,0.00470
3902.83728,0.00471
3901.87290,0.00472
3900.90853,0.00473
3899.94415,0.00477
3898.97977,0.00480
3898.01539,0.00482
3897.05101,0.00486
3896.08664,0.00493
3895.12226,0.00501
3894.15788,0.00506
3893.19350,0.00507
3892.22912,0.00503
3891.26475,0.00498
3890.30037,0.00491
3889.33599,0.00485
3888.37161,0.00481
3887.40724,0.00477
3886.44286,0.00474
3885.47848,0.00471
3884.51410,0.00470
3883.54972,0.00473
3882.58535,0.00478
3881.62097,0.00483
3880.65659,0.00485
3879.69221,0.00487
3878.72783,0.00491
3877.76346,0.00494
3876.79908,0.00498
3875.83470,0.00502
3874.87032,0.00503
3873.90594,0.00498
3872.94157,0.00490
3871.97719,0.00485
3871.01281,0.00483
3870.04843,0.00487
3869.08406,0.00490
3868.11968,0.00493
3867.15530,0.00498
3866.19092,0.00501
3865.22654,0.00503
3864.26217,0.00504
3863.29779,0.00504
3862.33341,0.00505
3861.36903,0.00505
3860.40465,0.00503
3859.44028,0.00507
3858.47590,0.00517
3857.51152,0.00525
3856.54714,0.00531
3855.58276,0.00530
3854.61839,0.00526
3853.65401,0.00517
3852.68963,0.00505
3851.72525,0.00497
3850.76088,0.00492
3849.79650,0.00490
3848.83212,0.00495
3847.86774,0.00511
3846.90336,0.00531
3845.93899,0.00547
3844.97461,0.00561
3844.01023,0.00574
3843.04585,0.00586
3842.08147,0.00587
3841.11710,0.00581
3840.15272,0.00575
3839.18834,0.00569
3838.22396,0.00563
3837.25959,0.00563
3836.29521,0.00565
3835.33083,0.00565
3834.36645,0.00564
3833.40207,0.00563
3832.43770,0.00564
3831.47332,0.00565
3830.50894,0.00561
3829.54456,0.00551
3828.58018,0.00545
3827.61581,0.00543
3826.65143,0.00539
3825.68705,0.00538
3824.72267,0.00541
3823.75829,0.00543
3822.79392,0.00545
3821.82954,0.00551
3820.86516,0.00561
3819.90078,0.00562
3818.93641,0.00556
3817.97203,0.00547
3817.00765,0.00539
3816.04327,0.00535
3815.07889,0.00534
3814.11452,0.00537
3813.15014,0.00539
3812.18576,0.00540
3811.22138,0.00546
3810.25700,0.00564
3809.29263,0.00575
3808.32825,0.00571
3807.36387,0.00568
3806.39949,0.00565
3805.43512,0.00558
3804.47074,0.00556
3803.50636,0.00557
3802.54198,0.00556
3801.57760,0.00553
3800.61323,0.00553
3799.64885,0.00559
3798.68447,0.00562
3797.72009,0.00561
3796.75571,0.00560
3795.79134,0.00564
3794.82696,0.00569
3793.86258,0.00572
3792.89820,0.00576
3791.93382,0.00578
3790.96945,0.00576
3790.00507,0.00574
3789.04069,0.00575
3788.07631,0.00572
3787.11194,0.00563
3786.14756,0.00556
3785.18318,0.00551
3784.21880,0.00550
3783.25442,0.00556
3782.29005,0.00563
3781.32567,0.00568
3780.36129,0.00567
3779.39691,0.00560
3778.43253,0.00556
3777.46816,0.00554
3776.50378,0.00548
3775.53940,0.00547
3774.57502,0.00551
3773.61065,0.00554
3772.64627,0.00560
3771.68189,0.00569
3770.71751,0.00576
3769.75313,0.00577
3768.78876,0.00572
3767.82438,0.00564
3766.86000,0.00562
3765.89562,0.00563
3764.93124,0.00566
3763.96687,0.00577
3763.00249,0.00588
3762.03811,0.00592
3761.07373,0.00591
3760.10935,0.00588
3759.14498,0.00582
3758.18060,0.00572
3757.21622,0.00564
3756.25184,0.00556
3755.28747,0.00551
3754.32309,0.00550
3753.35871,0.00550
3752.39433,0.00552
3751.42995,0.00552
3750.46558,0.00552
3749.50120,0.00556
3748.53682,0.00561
3747.57244,0.00560
3746.60806,0.00559
3745.64369,0.00566
3744.67931,0.00574
3743.71493,0.00586
3742.75055,0.00597
3741.78618,0.00602
3740.82180,0.00609
3739.85742,0.00618
3738.89304,0.00626
3737.92866,0.00628
3736.96429,0.00619
3735.99991,0.00606
3735.03553,0.00598
3734.07115,0.00591
3733.10677,0.00585
3732.14240,0.00578
3731.17802,0.00565
3730.21364,0.00550
3729.24926,0.00545
3728.28488,0.00546
3727.32051,0.00545
3726.35613,0.00542
3725.39175,0.00547
3724.42737,0.00560
3723.46300,0.00578
3722.49862,0.00593
3721.53424,0.00605
3720.56986,0.00617
3719.60548,0.00625
3718.64111,0.00622
3717.67673,0.00611
3716.71235,0.00598
3715.74797,0.00585
3714.78359,0.00577
3713.81922,0.00578
3712.85484,0.00581
3711.89046,0.00583
3710.92608,0.00590
3709.96171,0.00599
3708.99733,0.00614
3708.03295,0.00629
3707.06857,0.00639
3706.10419,0.00641
3705.13982,0.00634
3704.17544,0.00622
3703.21106,0.00615
3702.24668,0.00613
3701.28230,0.00611
3700.31793,0.00607
3699.35355,0.00603
3698.38917,0.00597
3697.42479,0.00594
3696.46041,0.00599
3695.49604,0.00604
3694.53166,0.00599
3693.56728,0.00592
3692.60290,0.00589
3691.63853,0.00591
3690.67415,0.00599
3689.70977,0.00611
3688.74539,0.00618
3687.78101,0.00620
3686.81664,0.00625
3685.85226,0.00632
3684.88788,0.00639
3683.92350,0.00643
3682.95912,0.00646
3681.99475,0.00647
3681.03037,0.00639
3680.06599,0.00624
3679.10161,0.00612
3678.13724,0.00609
3677.17286,0.00609
3676.20848,0.00608
3675.24410,0.00611
3674.27972,0.00616
3673.31535,0.00619
3672.35097,0.00622
3671.38659,0.00622
3670.42221,0.00620
3669.45783,0.00616
3668.49346,0.00611
3667.52908,0.00606
3666.56470,0.00606
3665.60032,0.00608
3664.63594,0.00607
3663.67157,0.00611
3662.70719,0.00614
3661.74281,0.00611
3660.77843,0.00607
3659.81406,0.00608
3658.84968,0.00617
3657.88530,0.00628
3656.92092,0.00631
3655.95654,0.00633
3654.99217,0.00639
3654.02779,0.00642
3653.06341,0.00644
3652.09903,0.00650
3651.13465,0.00653
3650.17028,0.00642
3649.20590,0.00626
3648.24152,0.00615
3647.27714,0.00610
3646.31276,0.00609
3645.34839,0.00607
3644.38401,0.00605
3643.41963,0.00601
3642.45525,0.00591
3641.49088,0.00587
3640.52650,0.00596
3639.56212,0.00608
3638.59774,0.00613
3637.63336,0.00616
3636.66899,0.00628
3635.70461,0.00639
3634.74023,0.00647
3633.77585,0.00652
3632.81147,0.00652
3631.84710,0.00648
3630.88272,0.00641
3629.91834,0.00634
3628.95396,0.00633
3627.98959,0.00632
3627.02521,0.00629
3626.06083,0.00628
3625.09645,0.00628
3624.13207,0.00623
3623.16770,0.00618
3622.20332,0.00620
3621.23894,0.00622
3620.27456,0.00625
3619.31018,0.00626
3618.34581,0.00623
3617.38143,0.00621
3616.41705,0.00625
3615.45267,0.00630
3614.48829,0.00630
3613.52392,0.00628
3612.55954,0.00627
3611.59516,0.00629
3610.63078,0.00631
3609.66641,0.00633
3608.70203,0.00637
3607.73765,0.00637
3606.77327,0.00639
3605.80889,0.00643
3604.84452,0.00649
3603.88014,0.00649
3602.91576,0.00636
3601.95138,0.00620
3600.98700,0.00614
3600.02263,0.00611
3599.05825,0.00611
3598.09387,0.00612
3597.12949,0.00613
3596.16512,0.00615
3595.20074,0.00624
3594.23636,0.00635
3593.27198,0.00644
3592.30760,0.00653
3591.34323,0.00659
3590.37885,0.00664
3589.41447,0.00674
3588.45009,0.00680
3587.48571,0.00680
3586.52134,0.00678
3585.55696,0.00669
3584.59258,0.00651
3583.62820,0.00633
3582.66382,0.00622
3581.69945,0.00614
3580.73507,0.00614
3579.77069,0.00619
3578.80631,0.00624
3577.84194,0.00626
3576.87756,0.00631
3575.91318,0.00645
3574.94880,0.00658
3573.98442,0.00660
3573.02005,0.00656
3572.05567,0.00656
3571.09129,0.00660
3570.12691,0.00661
3569.16253,0.00661
3568.19816,0.00660
3567.23378,0.00656
3566.26940,0.00651
3565.30502,0.00656
3564.34065,0.00671
3563.37627,0.00679
3562.41189,0.00671
3561.44751,0.00660
3560.48313,0.00654
3559.51876,0.00654
3558.55438,0.00654
3557.59000,0.00653
3556.62562,0.00652
3555.66124,0.00655
3554.69687,0.00661
3553.73249,0.00669
3552.76811,0.00678
3551.80373,0.00679
3550.83935,0.00673
3549.87498,0.00670
3548.91060,0.00672
3547.94622,0.00675
3546.98184,0.00679
3546.01747,0.00682
3545.05309,0.00685
3544.08871,0.00686
3543.12433,0.00683
3542.15995,0.00684
3541.19558,0.00686
3540.23120,0.00687
3539.26682,0.00688
3538.30244,0.00685
3537.33806,0.00681
3536.37369,0.00681
3535.40931,0.00678
3534.44493,0.00671
3533.48055,0.00667
3532.51618,0.00664
3531.55180,0.00661
3530.58742,0.00666
3529.62304,0.00671
3528.65866,0.00676
3527.69429,0.00682
3526.72991,0.00686
3525.76553,0.00690
3524.80115,0.00693
3523.83677,0.00692
3522.87240,0.00689
3521.90802,0.00690
3520.94364,0.00690
3519.97926,0.00689
3519.01488,0.00692
3518.05051,0.00696
3517.08613,0.00701
3516.12175,0.00705
3515.15737,0.00708
3514.19300,0.00712
3513.22862,0.00717
3512.26424,0.00724
3511.29986,0.00729
3510.33548,0.00726
3509.37111,0.00721
3508.40673,0.00714
3507.44235,0.00709
3506.47797,0.00706
3505.51359,0.00701
3504.54922,0.00698
3503.58484,0.00701
3502.62046,0.00711
3501.65608,0.00722
3500.69171,0.00727
3499.72733,0.00728
3498.76295,0.00724
3497.79857,0.00722
3496.83419,0.00716
3495.86982,0.00705
3494.90544,0.00694
3493.94106,0.00683
3492.97668,0.00680
3492.01230,0.00688
3491.04793,0.00702
3490.08355,0.00712
3489.11917,0.00713
3488.15479,0.00717
3487.19041,0.00720
3486.22604,0.00723
3485.26166,0.00721
3484.29728,0.00715
3483.33290,0.00709
3482.36853,0.00702
3481.40415,0.00698
3480.43977,0.00706
3479.47539,0.00714
3478.51101,0.00715
3477.54664,0.00714
3476.58226,0.00715
3475.61788,0.00718
3474.65350,0.00722
3473.68912,0.00726
3472.72475,0.00729
3471.76037,0.00729
3470.79599,0.00728
3469.83161,0.00731
3468.86724,0.00737
3467.90286,0.00740
3466.93848,0.00739
3465.97410,0.00734
3465.00972,0.00725
3464.04535,0.00719
3463.08097,0.00712
3462.11659,0.00704
3461.15221,0.00702
3460.18783,0.00703
3459.22346,0.00706
3458.25908,0.00710
3457.29470,0.00716
3456.33032,0.00727
3455.36594,0.00734
3454.40157,0.00734
3453.43719,0.00733
3452.47281,0.00732
3451.50843,0.00729
3450.54406,0.00726
3449.57968,0.00731
3448.61530,0.00736
3447.65092,0.00734
3446.68654,0.00731
3445.72217,0.00729
3444.75779,0.00728
3443.79341,0.00724
3442.82903,0.00722
3441.86465,0.00720
3440.90028,0.00712
3439.93590,0.00704
3438.97152,0.00701
3438.00714,0.00703
3437.04276,0.00708
3436.07839,0.00711
3435.11401,0.00717
3434.14963,0.00724
3433.18525,0.00730
3432.22088,0.00736
3431.25650,0.00741
3430.29212,0.00741
3429.32774,0.00734
3428.36336,0.00724
3427.39899,0.00720
3426.43461,0.00719
3425.47023,0.00723
3424.50585,0.00732
3423.54147,0.00743
3422.57710,0.00755
3421.61272,0.00763
3420.64834,0.00764
3419.68396,0.00760
3418.71959,0.00752
3417.75521,0.00742
3416.79083,0.00737
3415.82645,0.00736
3414.86207,0.00734
3413.89770,0.00737
3412.93332,0.00745
3411.96894,0.00752
3411.00456,0.00758
3410.04018,0.00763
3409.07581,0.00764
3408.11143,0.00760
3407.14705,0.00755
3406.18267,0.00752
3405.21829,0.00755
3404.25392,0.00756
3403.28954,0.00755
3402.32516,0.00750
3401.36078,0.00743
3400.39641,0.00737
3399.43203,0.00735
3398.46765,0.00738
3397.50327,0.00741
3396.53889,0.00741
3395.57452,0.00742
3394.61014,0.00748
3393.64576,0.00755
3392.68138,0.00757
3391.71700,0.00753
3390.75263,0.00747
3389.78825,0.00744
3388.82387,0.00744
3387.85949,0.00743
3386.89512,0.00742
3385.93074,0.00742
3384.96636,0.00743
3384.00198,0.00750
3383.03760,0.00755
3382.07323,0.00755
3381.10885,0.00756
3380.14447,0.00756
3379.18009,0.00757
3378.21571,0.00757
3377.25134,0.00755
3376.28696,0.00754
3375.32258,0.00751
3374.35820,0.00749
3373.39382,0.00750
3372.42945,0.00753
3371.46507,0.00754
3370.50069,0.00755
3369.53631,0.00758
3368.57194,0.00758
3367.60756,0.00756
3366.64318,0.00754
3365.67880,0.00754
3364.71442,0.00754
3363.75005,0.00748
3362.78567,0.00743
3361.82129,0.00739
3360.85691,0.00736
3359.89253,0.00740
3358.92816,0.00744
3357.96378,0.00745
3356.99940,0.00746
3356.03502,0.00748
3355.07065,0.00756
3354.10627,0.00769
3353.14189,0.00778
3352.17751,0.00779
3351.21313,0.00775
3350.24876,0.00769
3349.28438,0.00766
3348.32000,0.00767
3347.35562,0.00765
3346.39124,0.00761
3345.42687,0.00762
3344.46249,0.00769
3343.49811,0.00780
3342.53373,0.00787
3341.56935,0.00784
3340.60498,0.00775
3339.64060,0.00762
3338.67622,0.00749
3337.71184,0.00742
3336.74747,0.00738
3335.78309,0.00735
3334.81871,0.00740
3333.85433,0.00749
3332.88995,0.00762
3331.92558,0.00770
3330.96120,0.00772
3329.99682,0.00770
3329.03244,0.00768
3328.06806,0.00760
3327.10369,0.00749
3326.13931,0.00746
3325.17493,0.00747
3324.21055,0.00750
3323.24618,0.00755
3322.28180,0.00761
3321.31742,0.00769
3320.35304,0.00775
3319.38866,0.00778
3318.42429,0.00775
3317.45991,0.00771
3316.49553,0.00766
3315.53115,0.00763
3314.56677,0.00768
3313.60240,0.00774
3312.63802,0.00773
3311.67364,0.00771
3310.70926,0.00775
3309.74488,0.00781
3308.78051,0.00786
3307.81613,0.00791
3306.85175,0.00791
3305.88737,0.00791
3304.92300,0.00790
3303.95862,0.00788
3302.99424,0.00790
3302.02986,0.00790
3301.06548,0.00787
3300.10111,0.00784
3299.13673,0.00785
3298.17235,0.00786
3297.20797,0.00787
3296.24359,0.00790
3295.27922,0.00791
3294.31484,0.00791
3293.35046,0.00791
3292.38608,0.00795
3291.42171,0.00805
3290.45733,0.00810
3289.49295,0.00812
3288.52857,0.00811
3287.56419,0.00807
3286.59982,0.00802
3285.63544,0.00795
3284.67106,0.00787
3283.70668,0.00778
3282.74230,0.00774
3281.77793,0.00773
3280.81355,0.00777
3279.84917,0.00782
3278.88479,0.00784
3277.92041,0.00790
3276.95604,0.00797
3275.99166,0.00798
3275.02728,0.00795
3274.06290,0.00792
3273.09853,0.00787
3272.13415,0.00780
3271.16977,0.00779
3270.20539,0.00782
3269.24101,0.00786
3268.27664,0.00792
3267.31226,0.00798
3266.34788,0.00804
3265.38350,0.00804
3264.41912,0.00802
3263.45475,0.00801
3262.49037,0.00802
3261.52599,0.00803
3260.56161,0.00803
3259.59724,0.00802
3258.63286,0.00799
3257.66848,0.00795
3256.70410,0.00792
3255.73972,0.00788
3254.77535,0.00779
3253.81097,0.00769
3252.84659,0.00764
3251.88221,0.00766
3250.91783,0.00770
3249.95346,0.00778
3248.98908,0.00784
3248.02470,0.00787
3247.06032,0.00792
3246.09594,0.00798
3245.13157,0.00800
3244.16719,0.00798
3243.20281,0.00795
3242.23843,0.00793
3241.27406,0.00792
3240.30968,0.00794
3239.34530,0.00794
3238.38092,0.00796
3237.41654,0.00801
3236.45217,0.00804
3235.48779,0.00807
3234.52341,0.00804
3233.55903,0.00801
3232.59465,0.00800
3231.63028,0.00795
3230.66590,0.00789
3229.70152,0.00787
3228.73714,0.00790
3227.77276,0.00797
3226.80839,0.00805
3225.84401,0.00812
3224.87963,0.00816
3223.91525,0.00820
3222.95088,0.00823
3221.98650,0.00827
3221.02212,0.00826
3220.05774,0.00819
3219.09336,0.00813
3218.12899,0.00811
3217.16461,0.00812
3216.20023,0.00812
3215.23585,0.00810
3214.27147,0.00804
3213.30710,0.00802
3212.34272,0.00806
3211.37834,0.00810
3210.41396,0.00808
3209.44959,0.00801
3208.48521,0.00791
3207.52083,0.00784
3206.55645,0.00780
3205.59207,0.00780
3204.62770,0.00782
3203.66332,0.00782
3202.69894,0.00784
3201.73456,0.00792
3200.77018,0.00802
3199.80581,0.00808
3198.84143,0.00809
3197.87705,0.00809
3196.91267,0.00805
3195.94829,0.00801
3194.98392,0.00800
3194.01954,0.00806
3193.05516,0.00811
3192.09078,0.00811
3191.12641,0.00811
3190.16203,0.00818
3189.19765,0.00829
3188.23327,0.00837
3187.26889,0.00843
3186.30452,0.00846
3185.34014,0.00839
3184.37576,0.00830
3183.41138,0.00828
3182.44700,0.00830
3181.48263,0.00830
3180.51825,0.00822
3179.55387,0.00815
3178.58949,0.00814
3177.62512,0.00815
3176.66074,0.00815
3175.69636,0.00812
3174.73198,0.00806
3173.76760,0.00795
3172.80323,0.00790
3171.83885,0.00792
3170.87447,0.00794
3169.91009,0.00794
3168.94571,0.00792
3167.98134,0.00791
3167.01696,0.00791
3166.05258,0.00791
3165.08820,0.00792
3164.12382,0.00791
3163.15945,0.00789
3162.19507,0.00789
3161.23069,0.00794
3160.26631,0.00801
3159.30194,0.00804
3158.33756,0.00805
3157.37318,0.00805
3156.40880,0.00806
3155.44442,0.00804
3154.48005,0.00799
3153.51567,0.00796
3152.55129,0.00792
3151.58691,0.00790
3150.62253,0.00792
3149.65816,0.00793
3148.69378,0.00795
3147.72940,0.00798
3146.76502,0.00801
3145.80065,0.00802
3144.83627,0.00802
3143.87189,0.00804
3142.90751,0.00799
3141.94313,0.00792
3140.97876,0.00789
3140.01438,0.00790
3139.05000,0.00791
3138.08562,0.00791
3137.12124,0.00794
3136.15687,0.00804
3135.19249,0.00817
3134.22811,0.00826
3133.26373,0.00830
3132.29935,0.00828
3131.33498,0.00823
3130.37060,0.00820
3129.40622,0.00820
3128.44184,0.00821
3127.47747,0.00822
3126.51309,0.00823
3125.54871,0.00823
3124.58433,0.00826
3123.61995,0.00826
3122.65558,0.00821
3121.69120,0.00814
3120.72682,0.00809
3119.76244,0.00811
3118.79806,0.00815
3117.83369,0.00818
3116.86931,0.00823
3115.90493,0.00827
3114.94055,0.00832
3113.97618,0.00837
3113.01180,0.00836
3112.04742,0.00830
3111.08304,0.00824
3110.11866,0.00820
3109.15429,0.00817
3108.18991,0.00814
3107.22553,0.00813
3106.26115,0.00812
3105.29677,0.00809
3104.33240,0.00806
3103.36802,0.00806
3102.40364,0.00806
3101.43926,0.00805
3100.47488,0.00807
3099.51051,0.00811
3098.54613,0.00812
3097.58175,0.00813
3096.61737,0.00817
3095.65300,0.00820
3094.68862,0.00823
3093.72424,0.00824
3092.75986,0.00823
3091.79548,0.00820
3090.83111,0.00821
3089.86673,0.00826
3088.90235,0.00831
3087.93797,0.00832
3086.97359,0.00831
3086.00922,0.00831
3085.04484,0.00832
3084.08046,0.00831
3083.11608,0.00833
3082.15171,0.00836
3081.18733,0.00838
3080.22295,0.00838
3079.25857,0.00840
3078.29419,0.00843
3077.32982,0.00845
3076.36544,0.00844
3075.40106,0.00840
3074.43668,0.00836
3073.47230,0.00832
3072.50793,0.00832
3071.54355,0.00835
3070.57917,0.00838
3069.61479,0.00839
3068.65041,0.00833
3067.68604,0.00827
3066.72166,0.00827
3065.75728,0.00830
3064.79290,0.00829
3063.82853,0.00829
3062.86415,0.00830
3061.89977,0.00831
3060.93539,0.00833
3059.97101,0.00835
3059.00664,0.00836
3058.04226,0.00834
3057.07788,0.00830
3056.11350,0.00829
3055.14912,0.00832
3054.18475,0.00836
3053.22037,0.00839
3052.25599,0.00841
3051.29161,0.00844
3050.32724,0.00841
3049.36286,0.00838
3048.39848,0.00835
3047.43410,0.00831
3046.46972,0.00827
3045.50535,0.00825
3044.54097,0.00822
3043.57659,0.00821
3042.61221,0.00824
3041.64783,0.00825
3040.68346,0.00828
3039.71908,0.00829
3038.75470,0.00825
3037.79032,0.00825
3036.82594,0.00828
3035.86157,0.00830
3034.89719,0.00834
3033.93281,0.00840
3032.96843,0.00843
3032.00406,0.00845
3031.03968,0.00849
3030.07530,0.00851
3029.11092,0.00849
3028.14654,0.00844
3027.18217,0.00837
3026.21779,0.00835
3025.25341,0.00832
3024.28903,0.00829
3023.32465,0.00831
3022.36028,0.00831
3021.39590,0.00830
3020.43152,0.00831
3019.46714,0.00835
3018.50276,0.00837
3017.53839,0.00838
3016.57401,0.00840
3015.60963,0.00839
3014.64525,0.00837
3013.68088,0.00833
3012.71650,0.00831
3011.75212,0.00833
3010.78774,0.00832
3009.82336,0.00832
3008.85899,0.00836
3007.89461,0.00837
3006.93023,0.00836
3005.96585,0.00835
3005.00147,0.00836
3004.03710,0.00835
3003.07272,0.00835
3002.10834,0.00835
3001.14396,0.00834
3000.17959,0.00833
2999.21521,0.00833
2998.25083,0.00834
2997.28645,0.00833
2996.32207,0.00830
2995.35770,0.00827
2994.39332,0.00829
2993.42894,0.00836
2992.46456,0.00841
2991.50018,0.00843
2990.53581,0.00845
2989.57143,0.00848
2988.60705,0.00851
2987.64267,0.00850
2986.67829,0.00849
2985.71392,0.00847
2984.74954,0.00845
2983.78516,0.00843
2982.82078,0.00844
2981.85641,0.00846
2980.89203,0.00845
2979.92765,0.00846
2978.96327,0.00850
2977.99889,0.00857
2977.03452,0.00861
2976.07014,0.00859
2975.10576,0.00857
2974.14138,0.00854
2973.17700,0.00850
2972.21263,0.00846
2971.24825,0.00840
2970.28387,0.00835
2969.31949,0.00831
2968.35512,0.00831
2967.39074,0.00834
2966.42636,0.00839
2965.46198,0.00842
2964.49760,0.00840
2963.53323,0.00840
2962.56885,0.00840
2961.60447,0.00842
2960.64009,0.00843
2959.67571,0.00841
2958.71134,0.00838
2957.74696,0.00836
2956.78258,0.00838
2955.81820,0.00840
2954.85382,0.00843
2953.88945,0.00844
2952.92507,0.00842
2951.96069,0.00842
2950.99631,0.00840
2950.03194,0.00839
2949.06756,0.00840
2948.10318,0.00838
2947.13880,0.00835
2946.17442,0.00834
2945.21005,0.00836
2944.24567,0.00837
2943.28129,0.00840
2942.31691,0.00841
2941.35253,0.00840
2940.38816,0.00839
2939.42378,0.00837
2938.45940,0.00837
2937.49502,0.00838
2936.53065,0.00836
2935.56627,0.00833
2934.60189,0.00833
2933.63751,0.00834
2932.67313,0.00835
2931.70876,0.00836
2930.74438,0.00836
2929.78000,0.00835
2928.81562,0.00834
2927.85124,0.00833
2926.88687,0.00834
2925.92249,0.00834
2924.95811,0.00833
2923.99373,0.00834
2923.02935,0.00837
2922.06498,0.00838
2921.10060,0.00839
2920.13622,0.00839
2919.17184,0.00838
2918.20747,0.00836
2917.24309,0.00839
2916.27871,0.00842
2915.31433,0.00844
2914.34995,0.00846
2913.38558,0.00848
2912.42120,0.00849
2911.45682,0.00848
2910.49244,0.00844
2909.52806,0.00840
2908.56369,0.00836
2907.59931,0.00832
2906.63493,0.00831
2905.67055,0.00832
2904.70618,0.00831
2903.74180,0.00829
2902.77742,0.00833
2901.81304,0.00838
2900.84866,0.00843
2899.88429,0.00848
2898.91991,0.00849
2897.95553,0.00851
2896.99115,0.00851
2896.02677,0.00850
2895.06240,0.00852
2894.09802,0.00853
2893.13364,0.00851
2892.16926,0.00849
2891.20488,0.00851
2890.24051,0.00852
2889.27613,0.00854
2888.31175,0.00856
2887.34737,0.00857
2886.38300,0.00857
2885.41862,0.00856
2884.45424,0.00857
2883.48986,0.00859
2882.52548,0.00859
2881.56111,0.00857
2880.59673,0.00856
2879.63235,0.00856
2878.66797,0.00855
2877.70359,0.00855
2876.73922,0.00855
2875.77484,0.00854
2874.81046,0.00852
2873.84608,0.00848
2872.88171,0.00844
2871.91733,0.00841
2870.95295,0.00841
2869.98857,0.00843
2869.02419,0.00844
2868.05982,0.00847
2867.09544,0.00850
2866.13106,0.00853
2865.16668,0.00853
2864.20230,0.00853
2863.23793,0.00852
2862.27355,0.00851
2861.30917,0.00852
2860.34479,0.00854
2859.38041,0.00857
2858.41604,0.00858
2857.45166,0.00859
2856.48728,0.00859
2855.52290,0.00858
2854.55853,0.00855
2853.59415,0.00850
2852.62977,0.00847
2851.66539,0.00845
2850.70101,0.00843
2849.73664,0.00841
2848.77226,0.00840
2847.80788,0.00840
2846.84350,0.00839
2845.87912,0.00837
2844.91475,0.00838
2843.95037,0.00840
2842.98599,0.00844
2842.02161,0.00851
2841.05724,0.00861
2840.09286,0.00869
2839.12848,0.00873
2838.16410,0.00875
2837.19972,0.00875
2836.23535,0.00874
2835.27097,0.00869
2834.30659,0.00865
2833.34221,0.00864
2832.37783,0.00864
2831.41346,0.00865
2830.44908,0.00867
2829.48470,0.00871
2828.52032,0.00873
2827.55594,0.00872
2826.59157,0.00869
2825.62719,0.00863
2824.66281,0.00857
2823.69843,0.00854
2822.73406,0.00852
2821.76968,0.00848
2820.80530,0.00846
2819.84092,0.00846
2818.87654,0.00849
2817.91217,0.00853
2816.94779,0.00857
2815.98341,0.00860
2815.01903,0.00858
2814.05465,0.00853
2813.09028,0.00849
2812.12590,0.00848
2811.16152,0.00846
2810.19714,0.00844
2809.23276,0.00843
2808.26839,0.00843
2807.30401,0.00843
2806.33963,0.00842
2805.37525,0.00844
2804.41088,0.00846
2803.44650,0.00847
2802.48212,0.00848
2801.51774,0.00851
2800.55336,0.00854
2799.58899,0.00858
2798.62461,0.00861
2797.66023,0.00859
2796.69585,0.00855
2795.73147,0.00850
2794.76710,0.00846
2793.80272,0.00846
2792.83834,0.00850
2791.87396,0.00855
2790.90959,0.00858
2789.94521,0.00861
2788.98083,0.00862
2788.01645,0.00863
2787.05207,0.00864
2786.08770,0.00863
2785.12332,0.00864
2784.15894,0.00866
2783.19456,0.00868
2782.23018,0.00872
2781.26581,0.00876
2780.30143,0.00877
2779.33705,0.00876
2778.37267,0.00876
2777.40829,0.00874
2776.44392,0.00871
2775.47954,0.00869
2774.51516,0.00869
2773.55078,0.00870
2772.58641,0.00872
2771.62203,0.00874
2770.65765,0.00877
2769.69327,0.00877
2768.72889,0.00876
2767.76452,0.00875
2766.80014,0.00874
2765.83576,0.00870
2764.87138,0.00866
2763.90700,0.00865
2762.94263,0.00866
2761.97825,0.00868
2761.01387,0.00871
2760.04949,0.00874
2759.08512,0.00878
2758.12074,0.00879
2757.15636,0.00879
2756.19198,0.00879
2755.22760,0.00876
2754.26323,0.00874
2753.29885,0.00873
2752.33447,0.00875
2751.37009,0.00876
2750.40571,0.00877
2749.44134,0.00879
2748.47696,0.00881
2747.51258,0.00882
2746.54820,0.00882
2745.58382,0.00880
2744.61945,0.00877
2743.65507,0.00876
2742.69069,0.00878
2741.72631,0.00881
2740.76194,0.00882
2739.79756,0.00881
2738.83318,0.00884
2737.86880,0.00886
2736.90442,0.00885
2735.94005,0.00884
2734.97567,0.00883
2734.01129,0.00880
2733.04691,0.00879
2732.08253,0.00881
2731.11816,0.00885
2730.15378,0.00887
2729.18940,0.00887
2728.22502,0.00886
2727.26065,0.00887
2726.29627,0.00885
2725.33189,0.00883
2724.36751,0.00881
2723.40313,0.00881
2722.43876,0.00880
2721.47438,0.00880
2720.51000,0.00882
2719.54562,0.00884
2718.58124,0.00885
2717.61687,0.00885
2716.65249,0.00885
2715.68811,0.00887
2714.72373,0.00889
2713.75935,0.00890
2712.79498,0.00893
2711.83060,0.00895
2710.86622,0.00897
2709.90184,0.00896
2708.93747,0.00896
2707.97309,0.00895
2707.00871,0.00894
2706.04433,0.00894
2705.07995,0.00895
2704.11558,0.00896
2703.15120,0.00895
2702.18682,0.00893
2701.22244,0.00891
2700.25806,0.00890
2699.29369,0.00888
2698.32931,0.00886
2697.36493,0.00887
2696.40055,0.00892
2695.43618,0.00899
2694.47180,0.00905
2693.50742,0.00907
2692.54304,0.00909
2691.57866,0.00910
2690.61429,0.00908
2689.64991,0.00905
2688.68553,0.00901
2687.72115,0.00895
2686.75677,0.00891
2685.79240,0.00890
2684.82802,0.00891
2683.86364,0.00893
2682.89926,0.00894
2681.93488,0.00895
2680.97051,0.00898
2680.00613,0.00902
2679.04175,0.00906
2678.07737,0.00908
2677.11300,0.00907
2676.14862,0.00906
2675.18424,0.00906
2674.21986,0.00903
2673.25548,0.00900
2672.29111,0.00899
2671.32673,0.00900
2670.36235,0.00899
2669.39797,0.00900
2668.43359,0.00903
2667.46922,0.00905
2666.50484,0.00906
2665.54046,0.00908
2664.57608,0.00911
2663.61171,0.00915
2662.64733,0.00918
2661.68295,0.00922
2660.71857,0.00927
2659.75419,0.00930
2658.78982,0.00932
2657.82544,0.00935
2656.86106,0.00937
2655.89668,0.00939
2654.93230,0.00940
2653.96793,0.00941
2653.00355,0.00941
2652.03917,0.00940
2651.07479,0.00938
2650.11041,0.00936
2649.14604,0.00934
2648.18166,0.00932
2647.21728,0.00930
2646.25290,0.00931
2645.28853,0.00934
2644.32415,0.00938
2643.35977,0.00942
2642.39539,0.00944
2641.43101,0.00946
2640.46664,0.00945
2639.50226,0.00944
2638.53788,0.00941
2637.57350,0.00935
2636.60912,0.00929
2635.64475,0.00925
2634.68037,0.00922
2633.71599,0.00922
2632.75161,0.00924
2631.78724,0.00927
2630.82286,0.00929
2629.85848,0.00931
2628.89410,0.00931
2627.92972,0.00929
2626.96535,0.00926
2626.00097,0.00924
2625.03659,0.00924
2624.07221,0.00923
2623.10783,0.00923
2622.14346,0.00927
2621.17908,0.00933
2620.21470,0.00938
2619.25032,0.00941
2618.28594,0.00943
2617.32157,0.00943
2616.35719,0.00942
2615.39281,0.00944
2614.42843,0.00944
2613.46406,0.00939
2612.49968,0.00932
2611.53530,0.00925
2610.57092,0.00919
2609.60654,0.00915
2608.64217,0.00910
2607.67779,0.00905
2606.71341,0.00901
2605.74903,0.00899
2604.78465,0.00899
2603.82028,0.00903
2602.85590,0.00906
2601.89152,0.00908
2600.92714,0.00911
2599.96276,0.00915
2598.99839,0.00918
2598.03401,0.00919
2597.06963,0.00918
2596.10525,0.00915
2595.14088,0.00914
2594.17650,0.00915
2593.21212,0.00914
2592.24774,0.00912
2591.28336,0.00904
2590.31899,0.00895
2589.35461,0.00886
2588.39023,0.00879
2587.42585,0.00877
2586.46147,0.00878
2585.49710,0.00881
2584.53272,0.00887
2583.56834,0.00893
2582.60396,0.00896
2581.63959,0.00899
2580.67521,0.00902
2579.71083,0.00899
2578.74645,0.00897
2577.78207,0.00893
2576.81770,0.00892
2575.85332,0.00895
2574.88894,0.00895
2573.92456,0.00894
2572.96018,0.00889
2571.99581,0.00881
2571.03143,0.00873
2570.06705,0.00873
2569.10267,0.00878
2568.13829,0.00885
2567.17392,0.00895
2566.20954,0.00902
2565.24516,0.00906
2564.28078,0.00906
2563.31641,0.00903
2562.35203,0.00902
2561.38765,0.00899
2560.42327,0.00899
2559.45889,0.00898
2558.49452,0.00900
2557.53014,0.00905
2556.56576,0.00904
2555.60138,0.00903
2554.63700,0.00905
2553.67263,0.00906
2552.70825,0.00905
2551.74387,0.00910
2550.77949,0.00922
2549.81512,0.00932
2548.85074,0.00941
2547.88636,0.00948
2546.92198,0.00951
2545.95760,0.00948
2544.99323,0.00938
2544.02885,0.00931
2543.06447,0.00923
2542.10009,0.00910
2541.13571,0.00898
2540.17134,0.00892
2539.20696,0.00885
2538.24258,0.00877
2537.27820,0.00872
2536.31382,0.00869
2535.34945,0.00869
2534.38507,0.00869
2533.42069,0.00867
2532.45631,0.00872
2531.49194,0.00879
2530.52756,0.00884
2529.56318,0.00887
2528.59880,0.00888
2527.63442,0.00888
2526.67005,0.00888
2525.70567,0.00886
2524.74129,0.00881
2523.77691,0.00879
2522.81253,0.00873
2521.84816,0.00864
2520.88378,0.00866
2519.91940,0.00871
2518.95502,0.00869
2517.99065,0.00865
2517.02627,0.00862
2516.06189,0.00861
2515.09751,0.00866
2514.13313,0.00867
2513.16876,0.00863
2512.20438,0.00863
2511.24000,0.00867
2510.27562,0.00872
2509.31124,0.00880
2508.34687,0.00885
2507.38249,0.00889
2506.41811,0.00894
2505.45373,0.00899
2504.48935,0.00905
2503.52498,0.00909
2502.56060,0.00903
2501.59622,0.00888
2500.63184,0.00880
2499.66747,0.00874
2498.70309,0.00865
2497.73871,0.00860
2496.77433,0.00859
2495.80995,0.00865
2494.84558,0.00875
2493.88120,0.00882
2492.91682,0.00883
2491.95244,0.00879
2490.98806,0.00868
2490.02369,0.00859
2489.05931,0.00853
2488.09493,0.00843
2487.13055,0.00837
2486.16618,0.00841
2485.20180,0.00850
2484.23742,0.00863
2483.27304,0.00876
2482.30866,0.00885
2481.34429,0.00890
2480.37991,0.00889
2479.41553,0.00885
2478.45115,0.00881
2477.48677,0.00879
2476.52240,0.00878
2475.55802,0.00881
2474.59364,0.00885
2473.62926,0.00887
2472.66488,0.00893
2471.70051,0.00900
2470.73613,0.00904
2469.77175,0.00905
2468.80737,0.00904
2467.84300,0.00899
2466.87862,0.00894
2465.91424,0.00889
2464.94986,0.00881
2463.98548,0.00874
2463.02111,0.00866
2462.05673,0.00860
2461.09235,0.00865
2460.12797,0.00868
2459.16359,0.00863
2458.19922,0.00859
2457.23484,0.00863
2456.27046,0.00870
2455.30608,0.00875
2454.34171,0.00876
2453.37733,0.00875
2452.41295,0.00879
2451.44857,0.00885
2450.48419,0.00894
2449.51982,0.00900
2448.55544,0.00897
2447.59106,0.00891
2446.62668,0.00887
2445.66230,0.00884
2444.69793,0.00878
2443.73355,0.00875
2442.76917,0.00874
2441.80479,0.00874
2440.84041,0.00880
2439.87604,0.00890
2438.91166,0.00897
2437.94728,0.00903
2436.98290,0.00909
2436.01853,0.00908
2435.05415,0.00901
2434.08977,0.00898
2433.12539,0.00893
2432.16101,0.00884
2431.19664,0.00872
2430.23226,0.00860
2429.26788,0.00857
2428.30350,0.00858
2427.33912,0.00860
2426.37475,0.00865
2425.41037,0.00867
2424.44599,0.00867
2423.48161,0.00874
2422.51724,0.00888
2421.55286,0.00894
2420.58848,0.00891
2419.62410,0.00883
2418.65972,0.00876
2417.69535,0.00874
2416.73097,0.00871
2415.76659,0.00867
2414.80221,0.00858
2413.83783,0.00849
2412.87346,0.00848
2411.90908,0.00849
2410.94470,0.00854
2409.98032,0.00863
2409.01594,0.00871
2408.05157,0.00874
2407.08719,0.00876
2406.12281,0.00882
2405.15843,0.00886
2404.19406,0.00887
2403.22968,0.00884
2402.26530,0.00885
2401.30092,0.00887
2400.33654,0.00883
2399.37217,0.00881
2398.40779,0.00881
2397.44341,0.00878
2396.47903,0.00876
2395.51465,0.00872
2394.55028,0.00868
2393.58590,0.00866
2392.62152,0.00866
2391.65714,0.00869
2390.69276,0.00872
2389.72839,0.00868
2388.76401,0.00857
2387.79963,0.00848
2386.83525,0.00842
2385.87088,0.00839
2384.90650,0.00837
2383.94212,0.00832
2382.97774,0.00829
2382.01336,0.00832
2381.04899,0.00839
2380.08461,0.00844
2379.12023,0.00844
2378.15585,0.00842
2377.19147,0.00846
2376.22710,0.00850
2375.26272,0.00853
2374.29834,0.00857
2373.33396,0.00856
2372.36959,0.00851
2371.40521,0.00846
2370.44083,0.00842
2369.47645,0.00836
2368.51207,0.00826
2367.54770,0.00814
2366.58332,0.00811
2365.61894,0.00813
2364.65456,0.00816
2363.69018,0.00822
2362.72581,0.00831
2361.76143,0.00839
2360.79705,0.00846
2359.83267,0.00857
2358.86829,0.00864
2357.90392,0.00866
2356.93954,0.00865
2355.97516,0.00864
2355.01078,0.00864
2354.04641,0.00866
2353.08203,0.00869
2352.11765,0.00871
2351.15327,0.00873
2350.18889,0.00877
2349.22452,0.00880
2348.26014,0.00884
2347.29576,0.00882
2346.33138,0.00880
2345.36700,0.00879
2344.40263,0.00875
2343.43825,0.00872
2342.47387,0.00866
2341.50949,0.00860
2340.54512,0.00859
2339.58074,0.00860
2338.61636,0.00863
2337.65198,0.00865
2336.68760,0.00870
2335.72323,0.00873
2334.75885,0.00876
2333.79447,0.00880
2332.83009,0.00880
2331.86571,0.00875
2330.90134,0.00868
2329.93696,0.00871
2328.97258,0.00887
2328.00820,0.00906
2327.04382,0.00925
2326.07945,0.00942
2325.11507,0.00958
2324.15069,0.00972
2323.18631,0.00982
2322.22194,0.00984
2321.25756,0.00975
2320.29318,0.00960
2319.32880,0.00946
2318.36442,0.00937
2317.40005,0.00932
2316.43567,0.00925
2315.47129,0.00916
2314.50691,0.00909
2313.54253,0.00904
2312.57816,0.00903
2311.61378,0.00903
2310.64940,0.00903
2309.68502,0.00905
2308.72065,0.00907
2307.75627,0.00910
2306.79189,0.00912
2305.82751,0.00913
2304.86313,0.00913
2303.89876,0.00911
2302.93438,0.00910
2301.97000,0.00909
2301.00562,0.00908
2300.04124,0.00908
2299.07687,0.00907
2298.11249,0.00906
2297.14811,0.00906
2296.18373,0.00905
2295.21935,0.00904
2294.25498,0.00904
2293.29060,0.00903
2292.32622,0.00902
2291.36184,0.00902
2290.39747,0.00901
2289.43309,0.00900
2288.46871,0.00899
2287.50433,0.00899
2286.53995,0.00898
2285.57558,0.00897
2284.61120,0.00897
2283.64682,0.00896
2282.68244,0.00895
2281.71806,0.00895
2280.75369,0.00894
2279.78931,0.00893
2278.82493,0.00892
2277.86055,0.00892
2276.89618,0.00891
2275.93180,0.00890
2274.96742,0.00890
2274.00304,0.00889
2273.03866,0.00888
2272.07429,0.00888
2271.10991,0.00887
2270.14553,0.00886
2269.18115,0.00886
2268.21677,0.00885
2267.25240,0.00884
2266.28802,0.00883
2265.32364,0.00883
2264.35926,0.00882
2263.39488,0.00881
2262.43051,0.00881
2261.46613,0.00880
2260.50175,0.00879
2259.53737,0.00879
2258.57300,0.00878
2257.60862,0.00877
2256.64424,0.00877
2255.67986,0.00876
2254.71548,0.00875
2253.75111,0.00874
2252.78673,0.00874
2251.82235,0.00873
2250.85797,0.00872
2249.89359,0.00872
2248.92922,0.00871
2247.96484,0.00870
2247.00046,0.00870
2246.03608,0.00869
2245.07171,0.00868
2244.10733,0.00868
2243.14295,0.00867
2242.17857,0.00866
2241.21419,0.00865
2240.24982,0.00865
2239.28544,0.00864
2238.32106,0.00863
2237.35668,0.00863
2236.39230,0.00862
2235.42793,0.00861
2234.46355,0.00861
2233.49917,0.00860
2232.53479,0.00859
2231.57041,0.00859
2230.60604,0.00858
2229.64166,0.00857
2228.67728,0.00856
2227.71290,0.00856
2226.74853,0.00855
2225.78415,0.00854
2224.81977,0.00854
2223.85539,0.00853
2222.89101,0.00852
2221.92664,0.00852
2220.96226,0.00851
2219.99788,0.00850
2219.03350,0.00850
2218.06912,0.00849
2217.10475,0.00848
2216.14037,0.00847
2215.17599,0.00847
2214.21161,0.00846
2213.24724,0.00845
2212.28286,0.00845
2211.31848,0.00844
2210.35410,0.00843
2209.38972,0.00843
2208.42535,0.00842
2207.46097,0.00841
2206.49659,0.00841
2205.53221,0.00840
2204.56783,0.00839
2203.60346,0.00838
2202.63908,0.00838
2201.67470,0.00837
2200.71032,0.00836
2199.74594,0.00836
2198.78157,0.00835
2197.81719,0.00834
2196.85281,0.00834
2195.88843,0.00833
2194.92406,0.00832
2193.95968,0.00831
2192.99530,0.00831
2192.03092,0.00830
2191.06654,0.00829
2190.10217,0.00829
2189.13779,0.00828
2188.17341,0.00827
2187.20903,0.00827
2186.24465,0.00826
2185.28028,0.00825
2184.31590,0.00825
2183.35152,0.00824
2182.38714,0.00823
2181.42276,0.00822
2180.45839,0.00822
2179.49401,0.00821
2178.52963,0.00820
2177.56525,0.00820
2176.60088,0.00819
2175.63650,0.00818
2174.67212,0.00818
2173.70774,0.00817
2172.74336,0.00816
2171.77899,0.00816
2170.81461,0.00815
2169.85023,0.00814
2168.88585,0.00813
2167.92147,0.00813
2166.95710,0.00812
2165.99272,0.00811
2165.02834,0.00811
2164.06396,0.00810
2163.09959,0.00809
2162.13521,0.00809
2161.17083,0.00808
2160.20645,0.00807
2159.24207,0.00807
2158.27770,0.00806
2157.31332,0.00805
2156.34894,0.00804
2155.38456,0.00804
2154.42018,0.00803
2153.45581,0.00802
2152.49143,0.00802
2151.52705,0.00801
2150.56267,0.00800
2149.59829,0.00800
2148.63392,0.00799
2147.66954,0.00798
2146.70516,0.00798
2145.74078,0.00797
2144.77641,0.00796
2143.81203,0.00795
2142.84765,0.00795
2141.88327,0.00794
2140.91889,0.00793
2139.95452,0.00793
2138.99014,0.00792
2138.02576,0.00791
2137.06138,0.00791
2136.09700,0.00790
2135.13263,0.00789
2134.16825,0.00789
2133.20387,0.00788
2132.23949,0.00787
2131.27512,0.00786
2130.31074,0.00786
2129.34636,0.00785
2128.38198,0.00784
2127.41760,0.00784
2126.45323,0.00783
2125.48885,0.00782
2124.52447,0.00782
2123.56009,0.00781
2122.59571,0.00780
2121.63134,0.00780
2120.66696,0.00779
2119.70258,0.00778
2118.73820,0.00777
2117.77382,0.00777
2116.80945,0.00776
2115.84507,0.00775
2114.88069,0.00775
2113.91631,0.00774
2112.95194,0.00773
2111.98756,0.00773
2111.02318,0.00772
2110.05880,0.00771
2109.09442,0.00770
2108.13005,0.00770
2107.16567,0.00769
2106.20129,0.00768
2105.23691,0.00768
2104.27253,0.00767
2103.30816,0.00766
2102.34378,0.00766
2101.37940,0.00765
2100.41502,0.00764
2099.45065,0.00764
2098.48627,0.00763
2097.52189,0.00762
2096.55751,0.00761
2095.59313,0.00761
2094.62876,0.00760
2093.66438,0.00759
2092.70000,0.00759
2091.73562,0.00758
2090.77124,0.00757
2089.80687,0.00757
2088.84249,0.00756
2087.87811,0.00755
2086.91373,0.00755
2085.94935,0.00754
2084.98498,0.00753
2084.02060,0.00752
2083.05622,0.00752
2082.09184,0.00751
2081.12747,0.00750
2080.16309,0.00750
2079.19871,0.00749
2078.23433,0.00748
2077.26995,0.00748
2076.30558,0.00747
2075.34120,0.00746
2074.37682,0.00746
2073.41244,0.00745
2072.44806,0.00744
2071.48369,0.00743
2070.51931,0.00743
2069.55493,0.00742
2068.59055,0.00741
2067.62618,0.00741
2066.66180,0.00740
2065.69742,0.00739
2064.73304,0.00739
2063.76866,0.00738
2062.80429,0.00737
2061.83991,0.00737
2060.87553,0.00736
2059.91115,0.00735
2058.94677,0.00734
2057.98240,0.00734
2057.01802,0.00733
2056.05364,0.00732
2055.08926,0.00732
2054.12488,0.00731
2053.16051,0.00730
2052.19613,0.00730
2051.23175,0.00729
2050.26737,0.00728
2049.30300,0.00728
2048.33862,0.00727
2047.37424,0.00726
2046.40986,0.00725
2045.44548,0.00725
2044.48111,0.00724
2043.51673,0.00723
2042.55235,0.00723
2041.58797,0.00722
2040.62359,0.00721
2039.65922,0.00721
2038.69484,0.00720
2037.73046,0.00719
2036.76608,0.00719
2035.80171,0.00718
2034.83733,0.00717
2033.87295,0.00716
2032.90857,0.00716
2031.94419,0.00715
2030.97982,0.00714
2030.01544,0.00714
2029.05106,0.00713
2028.08668,0.00712
2027.12230,0.00712
2026.15793,0.00711
2025.19355,0.00710
2024.22917,0.00709
2023.26479,0.00709
2022.30041,0.00708
2021.33604,0.00707
2020.37166,0.00707
2019.40728,0.00706
2018.44290,0.00705
2017.47853,0.00705
2016.51415,0.00704
2015.54977,0.00703
2014.58539,0.00703
2013.62101,0.00702
2012.65664,0.00701
2011.69226,0.00700
2010.72788,0.00700
2009.76350,0.00699
2008.79912,0.00698
2007.83475,0.00698
2006.87037,0.00697
2005.90599,0.00696
2004.94161,0.00696
2003.97724,0.00695
2003.01286,0.00694
2002.04848,0.00694
2001.08410,0.00693
2000.11972,0.00692
1999.15535,0.00691
1998.19097,0.00691
1997.22659,0.00690
1996.26221,0.00689
1995.29783,0.00689
1994.33346,0.00688
1993.36908,0.00687
1992.40470,0.00687
1991.44032,0.00686
1990.47594,0.00685
1989.51157,0.00685
1988.54719,0.00684
1987.58281,0.00683
1986.61843,0.00682
1985.65406,0.00682
1984.68968,0.00681
1983.72530,0.00680
1982.76092,0.00680
1981.79654,0.00679
1980.83217,0.00678
1979.86779,0.00678
1978.90341,0.00677
1977.93903,0.00676
1976.97465,0.00676
1976.01028,0.00675
1975.04590,0.00674
1974.08152,0.00673
1973.11714,0.00673
1972.15276,0.00672
1971.18839,0.00671
1970.22401,0.00671
1969.25963,0.00670
1968.29525,0.00669
1967.33088,0.00669
1966.36650,0.00668
1965.40212,0.00667
1964.43774,0.00667
1963.47336,0.00666
1962.50899,0.00665
1961.54461,0.00664
1960.58023,0.00664
1959.61585,0.00663
1958.65147,0.00662
1957.68710,0.00662
1956.72272,0.00661
1955.75834,0.00660
1954.79396,0.00660
1953.82959,0.00659
1952.86521,0.00658
1951.90083,0.00658
1950.93645,0.00657
1949.97207,0.00656
1949.00770,0.00655
1948.04332,0.00655
1947.07894,0.00654
1946.11456,0.00653
1945.15018,0.00653
1944.18581,0.00652
1943.22143,0.00651
1942.25705,0.00651
1941.29267,0.00650
1940.32829,0.00649
1939.36392,0.00648
1938.39954,0.00648
1937.43516,0.00647
1936.47078,0.00646
1935.50641,0.00646
1934.54203,0.00645
1933.57765,0.00644
1932.61327,0.00644
1931.64889,0.00639
1930.68452,0.00636
1929.72014,0.00639
1928.75576,0.00645
1927.79138,0.00651
1926.82700,0.00666
1925.86263,0.00684
1924.89825,0.00697
1923.93387,0.00711
1922.96949,0.00724
1922.00512,0.00726
1921.04074,0.00721
1920.07636,0.00714
1919.11198,0.00715
1918.14760,0.00724
1917.18323,0.00737
1916.21885,0.00752
1915.25447,0.00764
1914.29009,0.00765
1913.32571,0.00761
1912.36134,0.00761
1911.39696,0.00752
1910.43258,0.00730
1909.46820,0.00715
1908.50382,0.00711
1907.53945,0.00718
1906.57507,0.00733
1905.61069,0.00747
1904.64631,0.00756
1903.68194,0.00757
1902.71756,0.00751
1901.75318,0.00752
1900.78880,0.00754
1899.82442,0.00751
1898.86005,0.00746
1897.89567,0.00742
1896.93129,0.00737
1895.96691,0.00729
1895.00253,0.00722
1894.03816,0.00722
1893.07378,0.00731
1892.10940,0.00739
1891.14502,0.00743
1890.18065,0.00755
1889.21627,0.00770
1888.25189,0.00779
1887.28751,0.00782
1886.32313,0.00772
1885.35876,0.00751
1884.39438,0.00732
1883.43000,0.00724
1882.46562,0.00727
1881.50124,0.00732
1880.53687,0.00738
1879.57249,0.00745
1878.60811,0.00756
1877.64373,0.00768
1876.67935,0.00779
1875.71498,0.00785
1874.75060,0.00781
1873.78622,0.00776
1872.82184,0.00776
1871.85747,0.00777
1870.89309,0.00777
1869.92871,0.00777
1868.96433,0.00773
1867.99995,0.00767
1867.03558,0.00761
1866.07120,0.00755
1865.10682,0.00752
1864.14244,0.00749
1863.17806,0.00747
1862.21369,0.00752
1861.24931,0.00758
1860.28493,0.00759
1859.32055,0.00756
1858.35618,0.00750
1857.39180,0.00743
1856.42742,0.00740
1855.46304,0.00739
1854.49866,0.00738
1853.53429,0.00740
1852.56991,0.00743
1851.60553,0.00747
1850.64115,0.00751
1849.67677,0.00753
1848.71240,0.00750
1847.74802,0.00748
1846.78364,0.00749
1845.81926,0.00753
1844.85488,0.00761
1843.89051,0.00766
1842.92613,0.00769
1841.96175,0.00772
1840.99737,0.00773
1840.03300,0.00770
1839.06862,0.00765
1838.10424,0.00762
1837.13986,0.00763
1836.17548,0.00764
1835.21111,0.00766
1834.24673,0.00771
1833.28235,0.00772
1832.31797,0.00770
1831.35359,0.00769
1830.38922,0.00768
1829.42484,0.00765
1828.46046,0.00764
1827.49608,0.00763
1826.53171,0.00764
1825.56733,0.00767
1824.60295,0.00770
1823.63857,0.00775
1822.67419,0.00776
1821.70982,0.00769
1820.74544,0.00762
1819.78106,0.00760
1818.81668,0.00756
1817.85230,0.00755
1816.88793,0.00757
1815.92355,0.00760
1814.95917,0.00765
1813.99479,0.00770
1813.03041,0.00774
1812.06604,0.00776
1811.10166,0.00776
1810.13728,0.00774
1809.17290,0.00775
1808.20853,0.00776
1807.24415,0.00776
1806.27977,0.00778
1805.31539,0.00783
1804.35101,0.00789
1803.38664,0.00793
1802.42226,0.00795
1801.45788,0.00795
1800.49350,0.00797
1799.52912,0.00801
1798.56475,0.00804
1797.60037,0.00803
1796.63599,0.00801
1795.67161,0.00801
1794.70724,0.00803
1793.74286,0.00804
1792.77848,0.00803
1791.81410,0.00799
1790.84972,0.00798
1789.88535,0.00797
1788.92097,0.00798
1787.95659,0.00798
1786.99221,0.00797
1786.02783,0.00797
1785.06346,0.00797
1784.09908,0.00797
1783.13470,0.00798
1782.17032,0.00800
1781.20594,0.00799
1780.24157,0.00797
1779.27719,0.00796
1778.31281,0.00796
1777.34843,0.00798
1776.38406,0.00800
1775.41968,0.00800
1774.45530,0.00802
1773.49092,0.00805
1772.52654,0.00808
1771.56217,0.00813
1770.59779,0.00815
1769.63341,0.00813
1768.66903,0.00810
1767.70465,0.00808
1766.74028,0.00807
1765.77590,0.00806
1764.81152,0.00804
1763.84714,0.00803
1762.88276,0.00805
1761.91839,0.00808
1760.95401,0.00810
1759.98963,0.00811
1759.02525,0.00811
1758.06088,0.00809
1757.09650,0.00809
1756.13212,0.00810
1755.16774,0.00809
1754.20336,0.00808
1753.23899,0.00808
1752.27461,0.00810
1751.31023,0.00812
1750.34585,0.00815
1749.38147,0.00817
1748.41710,0.00818
1747.45272,0.00819
1746.48834,0.00818
1745.52396,0.00818
1744.55959,0.00818
1743.59521,0.00817
1742.63083,0.00816
1741.66645,0.00815
1740.70207,0.00814
1739.73770,0.00813
1738.77332,0.00813
1737.80894,0.00812
1736.84456,0.00812
1735.88018,0.00814
1734.91581,0.00815
1733.95143,0.00816
1732.98705,0.00818
1732.02267,0.00818
1731.05829,0.00819
1730.09392,0.00820
1729.12954,0.00820
1728.16516,0.00819
1727.20078,0.00819
1726.23641,0.00820
1725.27203,0.00822
1724.30765,0.00823
1723.34327,0.00824
1722.37889,0.00825
1721.41452,0.00825
1720.45014,0.00824
1719.48576,0.00823
1718.52138,0.00822
1717.55700,0.00821
1716.59263,0.00819
1715.62825,0.00818
1714.66387,0.00816
1713.69949,0.00814
1712.73512,0.00813
1711.77074,0.00813
1710.80636,0.00814
1709.84198,0.00815
1708.87760,0.00815
1707.91323,0.00815
1706.94885,0.00816
1705.98447,0.00817
1705.02009,0.00819
1704.05571,0.00820
1703.09134,0.00820
1702.12696,0.00818
1701.16258,0.00817
1700.19820,0.00816
1699.23382,0.00814
1698.26945,0.00811
1697.30507,0.00808
1696.34069,0.00806
1695.37631,0.00806
1694.41194,0.00807
1693.44756,0.00808
1692.48318,0.00808
1691.51880,0.00807
1690.55442,0.00807
1689.59005,0.00808
1688.62567,0.00809
1687.66129,0.00812
1686.69691,0.00814
1685.73253,0.00814
1684.76816,0.00814
1683.80378,0.00815
1682.83940,0.00816
1681.87502,0.00816
1680.91065,0.00816
1679.94627,0.00814
1678.98189,0.00813
1678.01751,0.00812
1677.05313,0.00812
1676.08876,0.00813
1675.12438,0.00812
1674.16000,0.00810
1673.19562,0.00808
1672.23124,0.00806
1671.26687,0.00806
1670.30249,0.00806
1669.33811,0.00804
1668.37373,0.00804
1667.40935,0.00804
1666.44498,0.00805
1665.48060,0.00805
1664.51622,0.00807
1663.55184,0.00808
1662.58747,0.00810
1661.62309,0.00811
1660.65871,0.00811
1659.69433,0.00810
1658.72995,0.00809
1657.76558,0.00808
1656.80120,0.00809
1655.83682,0.00810
1654.87244,0.00809
1653.90806,0.00808
1652.94369,0.00807
1651.97931,0.00807
1651.01493,0.00806
1650.05055,0.00804
1649.08618,0.00802
1648.12180,0.00801
1647.15742,0.00801
1646.19304,0.00803
1645.22866,0.00805
1644.26429,0.00805
1643.29991,0.00805
1642.33553,0.00804
1641.37115,0.00804
1640.40677,0.00804
1639.44240,0.00803
1638.47802,0.00802
1637.51364,0.00801
1636.54926,0.00800
1635.58488,0.00800
1634.62051,0.00800
1633.65613,0.00800
1632.69175,0.00800
1631.72737,0.00800
1630.76300,0.00798
1629.79862,0.00798
1628.83424,0.00798
1627.86986,0.00799
1626.90548,0.00799
1625.94111,0.00798
1624.97673,0.00797
1624.01235,0.00798
1623.04797,0.00799
1622.08359,0.00802
1621.11922,0.00805
1620.15484,0.00807
1619.19046,0.00808
1618.22608,0.00809
1617.26171,0.00809
1616.29733,0.00811
1615.33295,0.00812
1614.36857,0.00813
1613.40419,0.00815
1612.43982,0.00815
1611.47544,0.00816
1610.51106,0.00818
1609.54668,0.00819
1608.58230,0.00818
1607.61793,0.00817
1606.65355,0.00814
1605.68917,0.00812
1604.72479,0.00810
1603.76041,0.00810
1602.79604,0.00811
1601.83166,0.00812
1600.86728,0.00812
1599.90290,0.00812
1598.93853,0.00812
1597.97415,0.00811
1597.00977,0.00809
1596.04539,0.00807
1595.08101,0.00804
1594.11664,0.00801
1593.15226,0.00798
1592.18788,0.00798
1591.22350,0.00797
1590.25912,0.00795
1589.29475,0.00795
1588.33037,0.00794
1587.36599,0.00793
1586.40161,0.00792
1585.43724,0.00792
1584.47286,0.00792
1583.50848,0.00792
1582.54410,0.00791
1581.57972,0.00793
1580.61535,0.00795
1579.65097,0.00797
1578.68659,0.00796
1577.72221,0.00797
1576.75783,0.00798
1575.79346,0.00798
1574.82908,0.00798
1573.86470,0.00797
1572.90032,0.00795
1571.93594,0.00792
1570.97157,0.00790
1570.00719,0.00788
1569.04281,0.00787
1568.07843,0.00786
1567.11406,0.00785
1566.14968,0.00786
1565.18530,0.00790
1564.22092,0.00793
1563.25654,0.00796
1562.29217,0.00798
1561.32779,0.00799
1560.36341,0.00800
1559.39903,0.00802
1558.43465,0.00804
1557.47028,0.00804
1556.50590,0.00803
1555.54152,0.00802
1554.57714,0.00801
1553.61276,0.00802
1552.64839,0.00803
1551.68401,0.00803
1550.71963,0.00801
1549.75525,0.00798
1548.79088,0.00798
1547.82650,0.00798
1546.86212,0.00797
1545.89774,0.00794
1544.93336,0.00791
1543.96899,0.00789
1543.00461,0.00787
1542.04023,0.00786
1541.07585,0.00785
1540.11147,0.00783
1539.14710,0.00780
1538.18272,0.00778
1537.21834,0.00776
1536.25396,0.00773
1535.28959,0.00771
1534.32521,0.00770
1533.36083,0.00769
1532.39645,0.00768
1531.43207,0.00767
1530.46770,0.00766
1529.50332,0.00766
1528.53894,0.00765
1527.57456,0.00765
1526.61018,0.00765
1525.64581,0.00765
1524.68143,0.00765
1523.71705,0.00764
1522.75267,0.00763
1521.78829,0.00763
1520.82392,0.00762
1519.85954,0.00761
1518.89516,0.00760
1517.93078,0.00759
1516.96641,0.00758
1516.00203,0.00756
1515.03765,0.00756
1514.07327,0.00755
1513.10889,0.00753
1512.14452,0.00752
1511.18014,0.00751
1510.21576,0.00752
1509.25138,0.00753
1508.28700,0.00753
1507.32263,0.00754
1506.35825,0.00754
1505.39387,0.00754
1504.42949,0.00754
1503.46512,0.00754
1502.50074,0.00753
1501.53636,0.00753
1500.57198,0.00752
1499.60760,0.00753
1498.64323,0.00754
1497.67885,0.00754
1496.71447,0.00753
1495.75009,0.00751
1494.78571,0.00751
1493.82134,0.00751
1492.85696,0.00750
1491.89258,0.00749
1490.92820,0.00749
1489.96382,0.00749
1488.99945,0.00749
1488.03507,0.00750
1487.07069,0.00750
1486.10631,0.00749
1485.14194,0.00747
1484.17756,0.00747
1483.21318,0.00747
1482.24880,0.00746
1481.28442,0.00745
1480.32005,0.00745
1479.35567,0.00745
1478.39129,0.00743
1477.42691,0.00741
1476.46253,0.00740
1475.49816,0.00740
1474.53378,0.00739
1473.56940,0.00740
1472.60502,0.00740
1471.64065,0.00740
1470.67627,0.00739
1469.71189,0.00739
1468.74751,0.00739
1467.78313,0.00738
1466.81876,0.00736
1465.85438,0.00735
1464.89000,0.00734
1463.92562,0.00733
1462.96124,0.00732
1461.99687,0.00733
1461.03249,0.00734
1460.06811,0.00735
1459.10373,0.00734
1458.13935,0.00733
1457.17498,0.00733
1456.21060,0.00731
1455.24622,0.00728
1454.28184,0.00727
1453.31747,0.00726
1452.35309,0.00726
1451.38871,0.00727
1450.42433,0.00728
1449.45995,0.00731
1448.49558,0.00731
1447.53120,0.00730
1446.56682,0.00729
1445.60244,0.00727
1444.63806,0.00724
1443.67369,0.00719
1442.70931,0.00716
1441.74493,0.00714
1440.78055,0.00713
1439.81618,0.00713
1438.85180,0.00712
1437.88742,0.00713
1436.92304,0.00711
1435.95866,0.00710
1434.99429,0.00709
1434.02991,0.00707
1433.06553,0.00705
1432.10115,0.00704
1431.13677,0.00703
1430.17240,0.00702
1429.20802,0.00701
1428.24364,0.00699
1427.27926,0.00700
1426.31488,0.00702
1425.35051,0.00703
1424.38613,0.00703
1423.42175,0.00704
1422.45737,0.00706
1421.49300,0.00707
1420.52862,0.00708
1419.56424,0.00707
1418.59986,0.00705
1417.63548,0.00702
1416.67111,0.00699
1415.70673,0.00698
1414.74235,0.00696
1413.77797,0.00695
1412.81359,0.00693
1411.84922,0.00693
1410.88484,0.00692
1409.92046,0.00689
1408.95608,0.00688
1407.99171,0.00688
1407.02733,0.00688
1406.06295,0.00688
1405.09857,0.00688
1404.13419,0.00688
1403.16982,0.00688
1402.20544,0.00686
1401.24106,0.00683
1400.27668,0.00681
1399.31230,0.00679
1398.34793,0.00676
1397.38355,0.00675
1396.41917,0.00674
1395.45479,0.00673
1394.49041,0.00673
1393.52604,0.00674
1392.56166,0.00674
1391.59728,0.00675
1390.63290,0.00676
1389.66853,0.00677
1388.70415,0.00678
1387.73977,0.00678
1386.77539,0.00678
1385.81101,0.00678
1384.84664,0.00677
1383.88226,0.00675
1382.91788,0.00671
1381.95350,0.00669
1380.98912,0.00667
1380.02475,0.00666
1379.06037,0.00666
1378.09599,0.00667
1377.13161,0.00668
1376.16724,0.00668
1375.20286,0.00669
1374.23848,0.00670
1373.27410,0.00669
1372.30972,0.00666
1371.34535,0.00663
1370.38097,0.00661
1369.41659,0.00660
1368.45221,0.00660
1367.48783,0.00661
1366.52346,0.00663
1365.55908,0.00664
1364.59470,0.00665
1363.63032,0.00666
1362.66594,0.00665
1361.70157,0.00661
1360.73719,0.00658
1359.77281,0.00657
1358.80843,0.00655
1357.84406,0.00654
1356.87968,0.00654
1355.91530,0.00655
1354.95092,0.00656
1353.98654,0.00658
1353.02217,0.00659
1352.05779,0.00659
1351.09341,0.00658
1350.12903,0.00656
1349.16465,0.00654
1348.20028,0.00652
1347.23590,0.00650
1346.27152,0.00646
1345.30714,0.00644
1344.34276,0.00643
1343.37839,0.00643
1342.41401,0.00642
1341.44963,0.00640
1340.48525,0.00640
1339.52088,0.00640
1338.55650,0.00640
1337.59212,0.00641
1336.62774,0.00642
1335.66336,0.00642
1334.69899,0.00641
1333.73461,0.00642
1332.77023,0.00643
1331.80585,0.00645
1330.84147,0.00645
1329.87710,0.00647
1328.91272,0.00649
1327.94834,0.00653
1326.98396,0.00655
1326.01959,0.00656
1325.05521,0.00655
1324.09083,0.00652
1323.12645,0.00649
1322.16207,0.00646
1321.19770,0.00643
1320.23332,0.00641
1319.26894,0.00639
1318.30456,0.00639
1317.34018,0.00639
1316.37581,0.00640
1315.41143,0.00640
1314.44705,0.00639
1313.48267,0.00637
1312.51829,0.00635
1311.55392,0.00634
1310.58954,0.00634
1309.62516,0.00635
1308.66078,0.00637
1307.69641,0.00639
1306.73203,0.00641
1305.76765,0.00640
1304.80327,0.00639
1303.83889,0.00639
1302.87452,0.00638
1301.91014,0.00636
1300.94576,0.00634
1299.98138,0.00634
1299.01700,0.00634
1298.05263,0.00636
1297.08825,0.00636
1296.12387,0.00638
1295.15949,0.00638
1294.19512,0.00637
1293.23074,0.00637
1292.26636,0.00638
1291.30198,0.00639
1290.33760,0.00638
1289.37323,0.00637
1288.40885,0.00638
1287.44447,0.00640
1286.48009,0.00641
1285.51571,0.00642
1284.55134,0.00644
1283.58696,0.00646
1282.62258,0.00647
1281.65820,0.00649
1280.69382,0.00651
1279.72945,0.00651
1278.76507,0.00649
1277.80069,0.00648
1276.83631,0.00648
1275.87194,0.00646
1274.90756,0.00644
1273.94318,0.00641
1272.97880,0.00638
1272.01442,0.00634
1271.05005,0.00632
1270.08567,0.00630
1269.12129,0.00628
1268.15691,0.00625
1267.19253,0.00624
1266.22816,0.00625
1265.26378,0.00626
1264.29940,0.00627
1263.33502,0.00629
1262.37065,0.00632
1261.40627,0.00636
1260.44189,0.00641
1259.47751,0.00647
1258.51313,0.00652
1257.54876,0.00658
1256.58438,0.00663
1255.62000,0.00668
1254.65562,0.00672
1253.69124,0.00676
1252.72687,0.00680
1251.76249,0.00685
1250.79811,0.00690
1249.83373,0.00695
1248.86935,0.00701
1247.90498,0.00707
1246.94060,0.00712
1245.97622,0.00717
1245.01184,0.00721
1244.04747,0.00724
1243.08309,0.00725
1242.11871,0.00727
1241.15433,0.00728
1240.18995,0.00731
1239.22558,0.00735
1238.26120,0.00738
1237.29682,0.00740
1236.33244,0.00741
1235.36806,0.00741
1234.40369,0.00740
1233.43931,0.00738
1232.47493,0.00732
1231.51055,0.00725
1230.54618,0.00719
1229.58180,0.00716
1228.61742,0.00716
1227.65304,0.00719
1226.68866,0.00721
1225.72429,0.00724
1224.75991,0.00726
1223.79553,0.00729
1222.83115,0.00732
1221.86677,0.00734
1220.90240,0.00735
1219.93802,0.00736
1218.97364,0.00736
1218.00926,0.00735
1217.04488,0.00736
1216.08051,0.00738
1215.11613,0.00740
1214.15175,0.00740
1213.18737,0.00740
1212.22300,0.00742
1211.25862,0.00746
1210.29424,0.00750
1209.32986,0.00753
1208.36548,0.00756
1207.40111,0.00758
1206.43673,0.00759
1205.47235,0.00761
1204.50797,0.00764
1203.54359,0.00765
1202.57922,0.00768
1201.61484,0.00772
1200.65046,0.00777
1199.68608,0.00783
1198.72171,0.00789
1197.75733,0.00797
1196.79295,0.00805
1195.82857,0.00813
1194.86419,0.00823
1193.89982,0.00834
1192.93544,0.00849
1191.97106,0.00868
1191.00668,0.00891
1190.04230,0.00922
1189.07793,0.00960
1188.11355,0.01008
1187.14917,0.01063
1186.18479,0.01126
1185.22041,0.01196
1184.25604,0.01270
1183.29166,0.01347
1182.32728,0.01426
1181.36290,0.01504
1180.39853,0.01581
1179.43415,0.01655
1178.46977,0.01728
1177.50539,0.01797
1176.54101,0.01859
1175.57664,0.01914
1174.61226,0.01963
1173.64788,0.02004
1172.68350,0.02039
1171.71912,0.02071
1170.75475,0.02104
1169.79037,0.02141
1168.82599,0.02185
1167.86161,0.02235
1166.89724,0.02291
1165.93286,0.02344
1164.96848,0.02389
1164.00410,0.02429
1163.03972,0.02467
1162.07535,0.02505
1161.11097,0.02547
1160.14659,0.02598
1159.18221,0.02662
1158.21783,0.02744
1157.25346,0.02847
1156.28908,0.02973
1155.32470,0.03118
1154.36032,0.03282
1153.39594,0.03465
1152.43157,0.03671
1151.46719,0.03898
1150.50281,0.04144
1149.53843,0.04402
1148.57406,0.04661
1147.60968,0.04915
1146.64530,0.05152
1145.68092,0.05362
1144.71654,0.05544
1143.75217,0.05701
1142.78779,0.05837
1141.82341,0.05959
1140.85903,0.06073
1139.89465,0.06187
1138.93028,0.06308
1137.96590,0.06436
1137.00152,0.06571
1136.03714,0.06711
1135.07276,0.06852
1134.10839,0.06992
1133.14401,0.07134
1132.17963,0.07279
1131.21525,0.07429
1130.25088,0.07583
1129.28650,0.07744
1128.32212,0.07910
1127.35774,0.08078
1126.39336,0.08247
1125.42899,0.08415
1124.46461,0.08582
1123.50023,0.08748
1122.53585,0.08911
1121.57147,0.09069
1120.60710,0.09227
1119.64272,0.09384
1118.67834,0.09540
1117.71396,0.09696
1116.74959,0.09852
1115.78521,0.10008
1114.82083,0.10167
1113.85645,0.10332
1112.89207,0.10502
1111.92770,0.10675
1110.96332,0.10853
1109.99894,0.11035
1109.03456,0.11223
1108.07018,0.11413
1107.10581,0.11604
1106.14143,0.11789
1105.17705,0.11965
1104.21267,0.12126
1103.24829,0.12267
1102.28392,0.12386
1101.31954,0.12478
1100.35516,0.12542
1099.39078,0.12578
1098.42641,0.12591
1097.46203,0.12588
1096.49765,0.12575
1095.53327,0.12553
1094.56889,0.12524
1093.60452,0.12491
1092.64014,0.12455
1091.67576,0.12415
1090.71138,0.12376
1089.74700,0.12336
1088.78263,0.12293
1087.81825,0.12248
1086.85387,0.12202
1085.88949,0.12157
1084.92512,0.12111
1083.96074,0.12059
1082.99636,0.12004
1082.03198,0.11946
1081.06760,0.11881
1080.10323,0.11810
1079.13885,0.11737
1078.17447,0.11663
1077.21009,0.11587
1076.24571,0.11508
1075.28134,0.11427
1074.31696,0.11347
1073.35258,0.11265
1072.38820,0.11183
1071.42382,0.11102
1070.45945,0.11021
1069.49507,0.10939
1068.53069,0.10858
1067.56631,0.10780
1066.60194,0.10704
1065.63756,0.10628
1064.67318,0.10553
1063.70880,0.10478
1062.74442,0.10403
1061.78005,0.10329
1060.81567,0.10255
1059.85129,0.10179
1058.88691,0.10102
1057.92253,0.10022
1056.95816,0.09940
1055.99378,0.09859
1055.02940,0.09776
1054.06502,0.09694
1053.10065,0.09610
1052.13627,0.09525
1051.17189,0.09438
1050.20751,0.09354
1049.24313,0.09271
1048.27876,0.09190
1047.31438,0.09107
1046.35000,0.09025
1045.38562,0.08946
1044.42124,0.08871
1043.45687,0.08796
1042.49249,0.08718
1041.52811,0.08641
1040.56373,0.08564
1039.59935,0.08484
1038.63498,0.08404
1037.67060,0.08325
1036.70622,0.08247
1035.74184,0.08170
1034.77747,0.08096
1033.81309,0.08024
1032.84871,0.07952
1031.88433,0.07878
1030.91995,0.07803
1029.95558,0.07730
1028.99120,0.07658
1028.02682,0.07587
1027.06244,0.07516
1026.09806,0.07445
1025.13369,0.07375
1024.16931,0.07304
1023.20493,0.07234
1022.24055,0.07165
1021.27618,0.07096
1020.31180,0.07026
1019.34742,0.06957
1018.38304,0.06888
1017.41866,0.06823
1016.45429,0.06759
1015.48991,0.06699
1014.52553,0.06638
1013.56115,0.06576
1012.59677,0.06513
1011.63240,0.06452
1010.66802,0.06393
1009.70364,0.06333
1008.73926,0.06271
1007.77488,0.06208
1006.81051,0.06144
1005.84613,0.06080
1004.88175,0.06017
1003.91737,0.05956
1002.95300,0.05896
1001.98862,0.05838
1001.02424,0.05782
1000.05986,0.05728
999.09548,0.05675
998.13111,0.05620
997.16673,0.05564
996.20235,0.05506
995.23797,0.05446
994.27359,0.05383
993.30922,0.05315
992.34484,0.05243
991.38046,0.05160
990.41608,0.05068
989.45171,0.04988
988.48733,0.04976
987.52295,0.05062
986.55857,0.05221
985.59419,0.05415
984.62982,0.05610
983.66544,0.05776
982.70106,0.05889
981.73668,0.05929
980.77230,0.05888
979.80793,0.05760
978.84355,0.05566
977.87917,0.05358
976.91479,0.05192
975.95041,0.05078
974.98604,0.04994
974.02166,0.04921
973.05728,0.04855
972.09290,0.04797
971.12853,0.04744
970.16415,0.04697
969.19977,0.04654
968.23539,0.04611
967.27101,0.04567
966.30664,0.04525
965.34226,0.04485
964.37788,0.04444
963.41350,0.04400
962.44912,0.04355
961.48475,0.04311
960.52037,0.04269
959.55599,0.04228
958.59161,0.04186
957.62724,0.04146
956.66286,0.04106
955.69848,0.04066
954.73410,0.04032
953.76972,0.04000
952.80535,0.03966
951.84097,0.03931
950.87659,0.03899
949.91221,0.03869
948.94783,0.03838
947.98346,0.03803
947.01908,0.03771
946.05470,0.03742
945.09032,0.03716
944.12594,0.03691
943.16157,0.03669
942.19719,0.03647
941.23281,0.03623
940.26843,0.03600
939.30406,0.03578
938.33968,0.03555
937.37530,0.03527
936.41092,0.03498
935.44654,0.03472
934.48217,0.03448
933.51779,0.03427
932.55341,0.03408
931.58903,0.03388
930.62465,0.03369
929.66028,0.03351
928.69590,0.03330
927.73152,0.03308
926.76714,0.03284
925.80276,0.03261
924.83839,0.03239
923.87401,0.03219
922.90963,0.03201
921.94525,0.03184
920.98088,0.03165
920.01650,0.03145
919.05212,0.03125
918.08774,0.03105
917.12336,0.03082
916.15899,0.03061
915.19461,0.03042
914.23023,0.03023
913.26585,0.03007
912.30147,0.02993
911.33710,0.02980
910.37272,0.02963
909.40834,0.02945
908.44396,0.02931
907.47959,0.02921
906.51521,0.02911
905.55083,0.02898
904.58645,0.02882
903.62207,0.02861
902.65770,0.02839
901.69332,0.02819
900.72894,0.02799
899.76456,0.02784
898.80018,0.02771
897.83581,0.02761
896.87143,0.02753
895.90705,0.02743
894.94267,0.02731
893.97829,0.02718
893.01392,0.02703
892.04954,0.02686
891.08516,0.02672
890.12078,0.02660
889.15641,0.02649
888.19203,0.02644
887.22765,0.02639
886.26327,0.02630
885.29889,0.02616
884.33452,0.02598
883.37014,0.02582
882.40576,0.02571
881.44138,0.02561
880.47700,0.02550
879.51263,0.02543
878.54825,0.02532
877.58387,0.02518
876.61949,0.02510
875.65512,0.02500
874.69074,0.02488
873.72636,0.02473
872.76198,0.02456
871.79760,0.02444
870.83323,0.02433
869.86885,0.02422
868.90447,0.02410
867.94009,0.02398
866.97571,0.02384
866.01134,0.02373
865.04696,0.02367
864.08258,0.02360
863.11820,0.02352
862.15382,0.02345
861.18945,0.02339
860.22507,0.02333
859.26069,0.02325
858.29631,0.02314
857.33194,0.02302
856.36756,0.02287
855.40318,0.02274
854.43880,0.02261
853.47442,0.02250
852.51005,0.02240
851.54567,0.02229
850.58129,0.02218
849.61691,0.02209
848.65253,0.02202
847.68816,0.02195
846.72378,0.02190
845.75940,0.02183
844.79502,0.02174
843.83065,0.02164
842.86627,0.02153
841.90189,0.02142
840.93751,0.02133
839.97313,0.02122
839.00876,0.02110
838.04438,0.02102
837.08000,0.02097
836.11562,0.02090
835.15124,0.02081
834.18687,0.02074
833.22249,0.02066
832.25811,0.02060
831.29373,0.02056
830.32935,0.02054
829.36498,0.02053
828.40060,0.02046
827.43622,0.02035
826.47184,0.02023
825.50747,0.02009
824.54309,0.01994
823.57871,0.01982
822.61433,0.01975
821.64995,0.01968
820.68558,0.01964
819.72120,0.01966
818.75682,0.01968
817.79244,0.01965
816.82806,0.01957
815.86369,0.01945
814.89931,0.01934
813.93493,0.01925
812.97055,0.01916
812.00618,0.01908
811.04180,0.01900
810.07742,0.01893
809.11304,0.01887
808.14866,0.01885
807.18429,0.01881
806.21991,0.01872
805.25553,0.01859
804.29115,0.01847
803.32677,0.01837
802.36240,0.01830
801.39802,0.01823
800.43364,0.01819
799.46926,0.01820
798.50488,0.01822
797.54051,0.01822
796.57613,0.01820
795.61175,0.01817
794.64737,0.01808
793.68300,0.01793
792.71862,0.01778
791.75424,0.01768
790.78986,0.01762
789.82548,0.01758
788.86111,0.01754
787.89673,0.01750
786.93235,0.01745
785.96797,0.01740
785.00359,0.01738
784.03922,0.01734
783.07484,0.01726
782.11046,0.01719
781.14608,0.01716
780.18171,0.01719
779.21733,0.01724
778.25295,0.01725
777.28857,0.01723
776.32419,0.01716
775.35982,0.01707
774.39544,0.01698
773.43106,0.01689
772.46668,0.01678
771.50230,0.01673
770.53793,0.01672
769.57355,0.01672
768.60917,0.01669
767.64479,0.01667
766.68041,0.01667
765.71604,0.01667
764.75166,0.01662
763.78728,0.01655
762.82290,0.01652
761.85853,0.01649
760.89415,0.01646
759.92977,0.01646
758.96539,0.01646
758.00101,0.01645
757.03664,0.01640
756.07226,0.01635
755.10788,0.01633
754.14350,0.01629
753.17912,0.01623
752.21475,0.01621
751.25037,0.01622
750.28599,0.01621
749.32161,0.01621
748.35724,0.01627
747.39286,0.01630
746.42848,0.01633
745.46410,0.01638
744.49972,0.01646
743.53535,0.01652
742.57097,0.01653
741.60659,0.01652
740.64221,0.01650
739.67783,0.01647
738.71346,0.01643
737.74908,0.01640
736.78470,0.01637
735.82032,0.01625
734.85594,0.01613
733.89157,0.01609
732.92719,0.01611
731.96281,0.01610
730.99843,0.01607
730.03406,0.01604
729.06968,0.01600
728.10530,0.01602
727.14092,0.01604
726.17654,0.01606
725.21217,0.01604
724.24779,0.01594
723.28341,0.01583
722.31903,0.01577
721.35465,0.01572
720.39028,0.01563
719.42590,0.01552
718.46152,0.01543
717.49714,0.01535
716.53276,0.01527
715.56839,0.01517
714.60401,0.01508
713.63963,0.01498
712.67525,0.01487
711.71088,0.01475
710.74650,0.01465
709.78212,0.01456
708.81774,0.01447
707.85336,0.01439
706.88899,0.01431
705.92461,0.01420
704.96023,0.01407
703.99585,0.01394
703.03147,0.01382
702.06710,0.01371
701.10272,0.01362
700.13834,0.01352
699.17396,0.01342
698.20959,0.01335
697.24521,0.01331
696.28083,0.01329
695.31645,0.01321
694.35207,0.01311
693.38770,0.01303
692.42332,0.01296
691.45894,0.01290
690.49456,0.01285
689.53018,0.01279
688.56581,0.01266
687.60143,0.01251
686.63705,0.01238
685.67267,0.01229
684.70829,0.01216
683.74392,0.01202
682.77954,0.01191
681.81516,0.01183
680.85078,0.01175
679.88641,0.01168
678.92203,0.01161
677.95765,0.01151
676.99327,0.01139
676.02889,0.01125
675.06452,0.01113
674.10014,0.01102
673.13576,0.01086
672.17138,0.01068
671.20700,0.01054
670.24263,0.01039
669.27825,0.01026
668.31387,0.01017
667.34949,0.01010
666.38512,0.01004
665.42074,0.00996
664.45636,0.00989
663.49198,0.00984
662.52760,0.00975
661.56323,0.00957
660.59885,0.00937
659.63447,0.00918
658.67009,0.00897
657.70571,0.00880
656.74134,0.00867
655.77696,0.00859
654.81258,0.00851
653.84820,0.00844
652.88382,0.00841
651.91945,0.00835
650.95507,0.00827
649.99069,0.00815
649.02631,0.00801
648.06194,0.00787
647.09756,0.00773
646.13318,0.00761
645.16880,0.00753
644.20442,0.00751
643.24005,0.00753
642.27567,0.00758
641.31129,0.00768
640.34691,0.00780
639.38253,0.00794
638.41816,0.00811
637.45378,0.00832
636.48940,0.00866
635.52502,0.00926
634.56065,0.01038
633.59627,0.01210
632.63189,0.01434
631.66751,0.01698
630.70313,0.02011
629.73876,0.02448
628.77438,0.03028
627.81000,0.03717
626.84562,0.04520
625.88124,0.05381
624.91687,0.06296
623.95249,0.07241
622.98811,0.08216
622.02373,0.09218
621.05935,0.10259
620.09498,0.11329
619.13060,0.12368
618.16622,0.13433
617.20184,0.14443
616.23747,0.15363
615.27309,0.16161
614.30871,0.16679
613.34433,0.16973
612.37995,0.17019
611.41558,0.16825
610.45120,0.16500
609.48682,0.16130
608.52244,0.15679
607.55806,0.15100
606.59369,0.14473
605.62931,0.13807
604.66493,0.13171
603.70055,0.12567
602.73618,0.11957
601.77180,0.11405
600.80742,0.10888
599.84304,0.10398
598.87866,0.09979
597.91429,0.09603
596.94991,0.09226
595.98553,0.08849
595.02115,0.08477
594.05677,0.08113
593.09240,0.07776
592.12802,0.07479
591.16364,0.07205
590.19926,0.06948
589.23488,0.06722
588.27051,0.06514
587.30613,0.06310
586.34175,0.06113
585.37737,0.05937
584.41300,0.05788
583.44862,0.05650
582.48424,0.05510
581.51986,0.05370
580.55548,0.05238
579.59111,0.05116
578.62673,0.04999
577.66235,0.04883
576.69797,0.04772
575.73359,0.04672
574.76922,0.04582
573.80484,0.04497
572.84046,0.04414
571.87608,0.04337
570.91171,0.04263
569.94733,0.04192
568.98295,0.04121
568.01857,0.04047
567.05419,0.03971
566.08982,0.03891
565.12544,0.03816
564.16106,0.03753
563.19668,0.03695
562.23230,0.03629
561.26793,0.03556
560.30355,0.03499
559.33917,0.03453
558.37479,0.03403
557.41041,0.03342
556.44604,0.03286
555.48166,0.03245
554.51728,0.03201
553.55290,0.03159
552.58853,0.03126
551.62415,0.03091
550.65977,0.03043
549.69539,0.02995
548.73101,0.02962
547.76664,0.02930
546.80226,0.02897
545.83788,0.02868
544.87350,0.02845
543.90912,0.02825
542.94475,0.02791
541.98037,0.02755
541.01599,0.02730
540.05161,0.02704
539.08724,0.02669
538.12286,0.02632
537.15848,0.02601
536.19410,0.02574
535.22972,0.02559
534.26535,0.02549
533.30097,0.02529
532.33659,0.02496
531.37221,0.02458
530.40783,0.02434
529.44346,0.02420
528.47908,0.02398
527.51470,0.02368
526.55032,0.02342
525.58594,0.02324
524.62157,0.02307
523.65719,0.02293
522.69281,0.02278
521.72843,0.02256
520.76406,0.02230
519.79968,0.02216
518.83530,0.02213
517.87092,0.02205
516.90654,0.02191
515.94217,0.02174
514.97779,0.02160
514.01341,0.02144
513.04903,0.02117
512.08465,0.02091
511.12028,0.02074
510.15590,0.02062
509.19152,0.02050
508.22714,0.02039
507.26276,0.02027
506.29839,0.02013
505.33401,0.02002
504.36963,0.01989
503.40525,0.01978
502.44088,0.01966
501.47650,0.01938
500.51212,0.01910
499.54774,0.01895
498.58336,0.01885
497.61899,0.01871
496.65461,0.01855
495.69023,0.01841
494.72585,0.01829
493.76147,0.01825
492.79710,0.01819
491.83272,0.01803
490.86834,0.01782
489.90396,0.01756
488.93959,0.01743
487.97521,0.01740
487.01083,0.01731
486.04645,0.01713
485.08207,0.01693
484.11770,0.01675
483.15332,0.01658
482.18894,0.01638
481.22456,0.01614
480.26018,0.01591
479.29581,0.01579
478.33143,0.01577
477.36705,0.01578
476.40267,0.01570
475.43829,0.01556
474.47392,0.01542
473.50954,0.01526
472.54516,0.01509
471.58078,0.01485
470.61641,0.01464
469.65203,0.01457
468.68765,0.01453
467.72327,0.01448
466.75889,0.01442
465.79452,0.01432
464.83014,0.01426
463.86576,0.01432
462.90138,0.01442
461.93700,0.01442
460.97263,0.01440
460.00825,0.01442
459.04387,0.01450
458.07949,0.01461
457.11512,0.01458
456.15074,0.01454
455.18636,0.01464
454.22198,0.01484
453.25760,0.01509
452.29323,0.01537
451.32885,0.01560
450.36447,0.01569
449.40009,0.01568
448.43571,0.01559
447.47134,0.01540
446.50696,0.01511
445.54258,0.01475
444.57820,0.01449
443.61382,0.01437
442.64945,0.01426
441.68507,0.01423
440.72069,0.01430
439.75631,0.01440
438.79194,0.01446
437.82756,0.01447
436.86318,0.01448
435.89880,0.01447
434.93442,0.01440
433.97005,0.01430
433.00567,0.01418
432.04129,0.01404
431.07691,0.01390
430.11253,0.01381
429.14816,0.01373
428.18378,0.01368
427.21940,0.01365
426.25502,0.01360
425.29065,0.01353
424.32627,0.01345
423.36189,0.01337
422.39751,0.01332
421.43313,0.01330
420.46876,0.01327
419.50438,0.01318
418.54000,0.01308
417.57562,0.01303
416.61124,0.01304
415.64687,0.01307
414.68249,0.01304
413.71811,0.01294
412.75373,0.01284
411.78935,0.01273
410.82498,0.01266
409.86060,0.01265
408.89622,0.01261
407.93184,0.01252
406.96747,0.01250
406.00309,0.01252
405.03871,0.01252
404.07433,0.01252
403.10995,0.01252
402.14558,0.01252
401.18120,0.01252
400.21682,0.01252
399.25244,0.01252
