3998.31069,0.00339
3997.34631,0.00339
3996.38194,0.00339
3995.41756,0.00339
3994.45318,0.00339
3993.48880,0.00339
3992.52442,0.00339
3991.56005,0.00336
3990.59567,0.00335
3989.63129,0.00333
3988.66691,0.00331
3987.70253,0.00328
3986.73816,0.00327
3985.77378,0.00325
3984.80940,0.00328
3983.84502,0.00335
3982.88065,0.00341
3981.91627,0.00345
3980.95189,0.00343
3979.98751,0.00338
3979.02313,0.00333
3978.05876,0.00328
3977.09438,0.00320
3976.13000,0.00311
3975.16562,0.00309
3974.20124,0.00309
3973.23687,0.00311
3972.27249,0.00316
3971.30811,0.00319
3970.34373,0.00319
3969.37935,0.00319
3968.41498,0.00322
3967.45060,0.00326
3966.48622,0.00328
3965.52184,0.00333
3964.55747,0.00339
3963.59309,0.00344
3962.62871,0.00348
3961.66433,0.00352
3960.69995,0.00353
3959.73558,0.00353
3958.77120,0.00354
3957.80682,0.00357
3956.84244,0.00360
3955.87806,0.00354
3954.91369,0.00353
3953.94931,0.00363
3952.98493,0.00365
3952.02055,0.00360
3951.05618,0.00359
3950.09180,0.00365
3949.12742,0.00366
3948.16304,0.00362
3947.19866,0.00361
3946.23429,0.00363
3945.26991,0.00364
3944.30553,0.00361
3943.34115,0.00368
3942.37677,0.00383
3941.41240,0.00392
3940.44802,0.00397
3939.48364,0.00405
3938.51926,0.00414
3937.55488,0.00414
3936.59051,0.00412
3935.62613,0.00418
3934.66175,0.00418
3933.69737,0.00406
3932.73300,0.00393
3931.76862,0.00384
3930.80424,0.00377
3929.83986,0.00365
3928.87548,0.00352
3927.91111,0.00345
3926.94673,0.00349
3925.98235,0.00362
3925.01797,0.00383
3924.05359,0.00404
3923.08922,0.00414
3922.12484,0.00422
3921.16046,0.00434
3920.19608,0.00437
3919.23171,0.00429
3918.26733,0.00420
3917.30295,0.00412
3916.33857,0.00408
3915.37419,0.00407
3914.40982,0.00409
3913.44544,0.00416
3912.48106,0.00420
3911.51668,0.00424
3910.55230,0.00433
3909.58793,0.00437
3908.62355,0.00428
3907.65917,0.00416
3906.69479,0.00411
3905.73041,0.00408
3904.76604,0.00406
3903.80166,0.00406
3902.83728,0.00408
3901.87290,0.00412
3900.90853,0.00415
3899.94415,0.00420
3898.97977,0.00427
3898.01539,0.00431
3897.05101,0.00432
3896.08664,0.00432
3895.12226,0.00436
3894.15788,0.00441
3893.19350,0.00447
3892.22912,0.00452
3891.26475,0.00453
3890.30037,0.00449
3889.33599,0.00443
3888.37161,0.00439
3887.40724,0.00435
3886.44286,0.00434
3885.47848,0.00432
3884.51410,0.00429
3883.54972,0.00429
3882.58535,0.00430
3881.62097,0.00434
3880.65659,0.00434
3879.69221,0.00430
3878.72783,0.00429
3877.76346,0.00427
3876.79908,0.00428
3875.83470,0.00433
3874.87032,0.00440
3873.90594,0.00441
3872.94157,0.00437
3871.97719,0.00432
3871.01281,0.00427
3870.04843,0.00426
3869.08406,0.00426
3868.11968,0.00425
3867.15530,0.00428
3866.19092,0.00429
3865.22654,0.00429
3864.26217,0.00429
3863.29779,0.00427
3862.33341,0.00427
3861.36903,0.00428
3860.40465,0.00427
3859.44028,0.00433
3858.47590,0.00448
3857.51152,0.00466
3856.54714,0.00483
3855.58276,0.00492
3854.61839,0.00488
3853.65401,0.00474
3852.68963,0.00457
3851.72525,0.00447
3850.76088,0.00440
3849.79650,0.00432
3848.83212,0.00427
3847.86774,0.00432
3846.90336,0.00446
3845.93899,0.00461
3844.97461,0.00480
3844.01023,0.00494
3843.04585,0.00500
3842.08147,0.00505
3841.11710,0.00508
3840.15272,0.00508
3839.18834,0.00507
3838.22396,0.00505
3837.25959,0.00499
3836.29521,0.00492
3835.33083,0.00485
3834.36645,0.00477
3833.40207,0.00473
3832.43770,0.00476
3831.47332,0.00483
3830.50894,0.00488
3829.54456,0.00486
3828.58018,0.00482
3827.61581,0.00483
3826.65143,0.00481
3825.68705,0.00475
3824.72267,0.00472
3823.75829,0.00466
3822.79392,0.00458
3821.82954,0.00458
3820.86516,0.00467
3819.90078,0.00471
3818.93641,0.00470
3817.97203,0.00469
3817.00765,0.00474
3816.04327,0.00485
3815.07889,0.00496
3814.11452,0.00505
3813.15014,0.00507
3812.18576,0.00500
3811.22138,0.00491
3810.25700,0.00485
3809.29263,0.00477
3808.32825,0.00465
3807.36387,0.00458
3806.39949,0.00459
3805.43512,0.00464
3804.47074,0.00473
3803.50636,0.00484
3802.54198,0.00494
3801.57760,0.00504
3800.61323,0.00513
3799.64885,0.00519
3798.68447,0.00518
3797.72009,0.00518
3796.75571,0.00517
3795.79134,0.00517
3794.82696,0.00514
3793.86258,0.00504
3792.89820,0.00494
3791.93382,0.00485
3790.96945,0.00478
3790.00507,0.00474
3789.04069,0.00474
3788.07631,0.00470
3787.11194,0.00464
3786.14756,0.00466
3785.18318,0.00471
3784.21880,0.00479
3783.25442,0.00490
3782.29005,0.00494
3781.32567,0.00492
3780.36129,0.00485
3779.39691,0.00473
3778.43253,0.00467
3777.46816,0.00469
3776.50378,0.00473
3775.53940,0.00479
3774.57502,0.00487
3773.61065,0.00496
3772.64627,0.00507
3771.68189,0.00515
3770.71751,0.00517
3769.75313,0.00510
3768.78876,0.00496
3767.82438,0.00483
3766.86000,0.00485
3765.89562,0.00496
3764.93124,0.00509
3763.96687,0.00523
3763.00249,0.00531
3762.03811,0.00537
3761.07373,0.00541
3760.10935,0.00541
3759.14498,0.00538
3758.18060,0.00527
3757.21622,0.00516
3756.25184,0.00510
3755.28747,0.00507
3754.32309,0.00501
3753.35871,0.00494
3752.39433,0.00487
3751.42995,0.00479
3750.46558,0.00473
3749.50120,0.00475
3748.53682,0.00481
3747.57244,0.00483
3746.60806,0.00489
3745.64369,0.00504
3744.67931,0.00517
3743.71493,0.00523
3742.75055,0.00525
3741.78618,0.00533
3740.82180,0.00541
3739.85742,0.00546
3738.89304,0.00553
3737.92866,0.00565
3736.96429,0.00569
3735.99991,0.00564
3735.03553,0.00559
3734.07115,0.00553
3733.10677,0.00543
3732.14240,0.00526
3731.17802,0.00505
3730.21364,0.00490
3729.24926,0.00481
3728.28488,0.00477
3727.32051,0.00479
3726.35613,0.00489
3725.39175,0.00502
3724.42737,0.00510
3723.46300,0.00518
3722.49862,0.00524
3721.53424,0.00524
3720.56986,0.00522
3719.60548,0.00517
3718.64111,0.00503
3717.67673,0.00488
3716.71235,0.00475
3715.74797,0.00471
3714.78359,0.00476
3713.81922,0.00487
3712.85484,0.00500
3711.89046,0.00511
3710.92608,0.00523
3709.96171,0.00535
3708.99733,0.00549
3708.03295,0.00561
3707.06857,0.00562
3706.10419,0.00557
3705.13982,0.00547
3704.17544,0.00541
3703.21106,0.00540
3702.24668,0.00543
3701.28230,0.00550
3700.31793,0.00551
3699.35355,0.00548
3698.38917,0.00540
3697.42479,0.00532
3696.46041,0.00532
3695.49604,0.00530
3694.53166,0.00527
3693.56728,0.00527
3692.60290,0.00531
3691.63853,0.00538
3690.67415,0.00552
3689.70977,0.00569
3688.74539,0.00576
3687.78101,0.00572
3686.81664,0.00563
3685.85226,0.00555
3684.88788,0.00549
3683.92350,0.00545
3682.95912,0.00548
3681.99475,0.00554
3681.03037,0.00554
3680.06599,0.00554
3679.10161,0.00560
3678.13724,0.00564
3677.17286,0.00558
3676.20848,0.00548
3675.24410,0.00542
3674.27972,0.00543
3673.31535,0.00546
3672.35097,0.00547
3671.38659,0.00551
3670.42221,0.00556
3669.45783,0.00562
3668.49346,0.00568
3667.52908,0.00572
3666.56470,0.00569
3665.60032,0.00561
3664.63594,0.00553
3663.67157,0.00553
3662.70719,0.00560
3661.74281,0.00558
3660.77843,0.00548
3659.81406,0.00537
3658.84968,0.00529
3657.88530,0.00530
3656.92092,0.00533
3655.95654,0.00535
3654.99217,0.00541
3654.02779,0.00547
3653.06341,0.00554
3652.09903,0.00568
3651.13465,0.00587
3650.17028,0.00594
3649.20590,0.00590
3648.24152,0.00585
3647.27714,0.00575
3646.31276,0.00563
3645.34839,0.00549
3644.38401,0.00541
3643.41963,0.00529
3642.45525,0.00511
3641.49088,0.00502
3640.52650,0.00508
3639.56212,0.00522
3638.59774,0.00534
3637.63336,0.00551
3636.66899,0.00567
3635.70461,0.00569
3634.74023,0.00568
3633.77585,0.00571
3632.81147,0.00575
3631.84710,0.00575
3630.88272,0.00569
3629.91834,0.00563
3628.95396,0.00560
3627.98959,0.00561
3627.02521,0.00562
3626.06083,0.00566
3625.09645,0.00565
3624.13207,0.00558
3623.16770,0.00556
3622.20332,0.00560
3621.23894,0.00567
3620.27456,0.00572
3619.31018,0.00574
3618.34581,0.00572
3617.38143,0.00575
3616.41705,0.00588
3615.45267,0.00599
3614.48829,0.00605
3613.52392,0.00608
3612.55954,0.00605
3611.59516,0.00597
3610.63078,0.00584
3609.66641,0.00571
3608.70203,0.00564
3607.73765,0.00562
3606.77327,0.00559
3605.80889,0.00560
3604.84452,0.00567
3603.88014,0.00571
3602.91576,0.00571
3601.95138,0.00569
3600.98700,0.00569
3600.02263,0.00569
3599.05825,0.00569
3598.09387,0.00570
3597.12949,0.00572
3596.16512,0.00575
3595.20074,0.00580
3594.23636,0.00578
3593.27198,0.00573
3592.30760,0.00576
3591.34323,0.00583
3590.37885,0.00590
3589.41447,0.00602
3588.45009,0.00611
3587.48571,0.00613
3586.52134,0.00611
3585.55696,0.00610
3584.59258,0.00606
3583.62820,0.00599
3582.66382,0.00589
3581.69945,0.00581
3580.73507,0.00582
3579.77069,0.00584
3578.80631,0.00586
3577.84194,0.00584
3576.87756,0.00582
3575.91318,0.00587
3574.94880,0.00594
3573.98442,0.00602
3573.02005,0.00606
3572.05567,0.00610
3571.09129,0.00612
3570.12691,0.00615
3569.16253,0.00624
3568.19816,0.00634
3567.23378,0.00641
3566.26940,0.00638
3565.30502,0.00637
3564.34065,0.00641
3563.37627,0.00641
3562.41189,0.00632
3561.44751,0.00617
3560.48313,0.00606
3559.51876,0.00601
3558.55438,0.00605
3557.59000,0.00614
3556.62562,0.00622
3555.66124,0.00627
3554.69687,0.00629
3553.73249,0.00637
3552.76811,0.00646
3551.80373,0.00655
3550.83935,0.00661
3549.87498,0.00661
3548.91060,0.00662
3547.94622,0.00661
3546.98184,0.00657
3546.01747,0.00651
3545.05309,0.00645
3544.08871,0.00636
3543.12433,0.00623
3542.15995,0.00617
3541.19558,0.00620
3540.23120,0.00634
3539.26682,0.00648
3538.30244,0.00650
3537.33806,0.00648
3536.37369,0.00647
3535.40931,0.00647
3534.44493,0.00648
3533.48055,0.00655
3532.51618,0.00656
3531.55180,0.00652
3530.58742,0.00653
3529.62304,0.00660
3528.65866,0.00670
3527.69429,0.00677
3526.72991,0.00676
3525.76553,0.00672
3524.80115,0.00670
3523.83677,0.00672
3522.87240,0.00676
3521.90802,0.00680
3520.94364,0.00680
3519.97926,0.00681
3519.01488,0.00687
3518.05051,0.00694
3517.08613,0.00705
3516.12175,0.00716
3515.15737,0.00719
3514.19300,0.00719
3513.22862,0.00723
3512.26424,0.00728
3511.29986,0.00722
3510.33548,0.00710
3509.37111,0.00703
3508.40673,0.00703
3507.44235,0.00703
3506.47797,0.00703
3505.51359,0.00704
3504.54922,0.00709
3503.58484,0.00714
3502.62046,0.00721
3501.65608,0.00732
3500.69171,0.00741
3499.72733,0.00744
3498.76295,0.00746
3497.79857,0.00752
3496.83419,0.00752
3495.86982,0.00746
3494.90544,0.00739
3493.94106,0.00732
3492.97668,0.00729
3492.01230,0.00730
3491.04793,0.00735
3490.08355,0.00739
3489.11917,0.00745
3488.15479,0.00753
3487.19041,0.00762
3486.22604,0.00764
3485.26166,0.00758
3484.29728,0.00753
3483.33290,0.00755
3482.36853,0.00753
3481.40415,0.00747
3480.43977,0.00742
3479.47539,0.00743
3478.51101,0.00742
3477.54664,0.00744
3476.58226,0.00750
3475.61788,0.00757
3474.65350,0.00766
3473.68912,0.00773
3472.72475,0.00782
3471.76037,0.00794
3470.79599,0.00802
3469.83161,0.00806
3468.86724,0.00811
3467.90286,0.00815
3466.93848,0.00816
3465.97410,0.00811
3465.00972,0.00806
3464.04535,0.00807
3463.08097,0.00808
3462.11659,0.00807
3461.15221,0.00807
3460.18783,0.00812
3459.22346,0.00816
3458.25908,0.00818
3457.29470,0.00824
3456.33032,0.00834
3455.36594,0.00840
3454.40157,0.00843
3453.43719,0.00846
3452.47281,0.00849
3451.50843,0.00849
3450.54406,0.00848
3449.57968,0.00847
3448.61530,0.00845
3447.65092,0.00843
3446.68654,0.00844
3445.72217,0.00854
3444.75779,0.00861
3443.79341,0.00864
3442.82903,0.00869
3441.86465,0.00873
3440.90028,0.00874
3439.93590,0.00875
3438.97152,0.00878
3438.00714,0.00883
3437.04276,0.00887
3436.07839,0.00892
3435.11401,0.00899
3434.14963,0.00909
3433.18525,0.00916
3432.22088,0.00919
3431.25650,0.00922
3430.29212,0.00925
3429.32774,0.00928
3428.36336,0.00932
3427.39899,0.00940
3426.43461,0.00951
3425.47023,0.00959
3424.50585,0.00964
3423.54147,0.00971
3422.57710,0.00985
3421.61272,0.00998
3420.64834,0.01004
3419.68396,0.01007
3418.71959,0.01007
3417.75521,0.01008
3416.79083,0.01011
3415.82645,0.01016
3414.86207,0.01018
3413.89770,0.01015
3412.93332,0.01016
3411.96894,0.01023
3411.00456,0.01033
3410.04018,0.01042
3409.07581,0.01048
3408.11143,0.01052
3407.14705,0.01056
3406.18267,0.01061
3405.21829,0.01065
3404.25392,0.01064
3403.28954,0.01059
3402.32516,0.01055
3401.36078,0.01055
3400.39641,0.01057
3399.43203,0.01061
3398.46765,0.01069
3397.50327,0.01079
3396.53889,0.01089
3395.57452,0.01098
3394.61014,0.01112
3393.64576,0.01123
3392.68138,0.01128
3391.71700,0.01135
3390.75263,0.01141
3389.78825,0.01147
3388.82387,0.01154
3387.85949,0.01160
3386.89512,0.01162
3385.93074,0.01159
3384.96636,0.01153
3384.00198,0.01148
3383.03760,0.01145
3382.07323,0.01144
3381.10885,0.01145
3380.14447,0.01150
3379.18009,0.01160
3378.21571,0.01174
3377.25134,0.01186
3376.28696,0.01195
3375.32258,0.01200
3374.35820,0.01203
3373.39382,0.01205
3372.42945,0.01206
3371.46507,0.01211
3370.50069,0.01220
3369.53631,0.01227
3368.57194,0.01233
3367.60756,0.01239
3366.64318,0.01242
3365.67880,0.01241
3364.71442,0.01237
3363.75005,0.01230
3362.78567,0.01225
3361.82129,0.01222
3360.85691,0.01223
3359.89253,0.01233
3358.92816,0.01245
3357.96378,0.01255
3356.99940,0.01260
3356.03502,0.01262
3355.07065,0.01266
3354.10627,0.01272
3353.14189,0.01278
3352.17751,0.01278
3351.21313,0.01275
3350.24876,0.01272
3349.28438,0.01271
3348.32000,0.01273
3347.35562,0.01274
3346.39124,0.01271
3345.42687,0.01271
3344.46249,0.01275
3343.49811,0.01286
3342.53373,0.01295
3341.56935,0.01295
3340.60498,0.01290
3339.64060,0.01284
3338.67622,0.01280
3337.71184,0.01276
3336.74747,0.01273
3335.78309,0.01272
3334.81871,0.01274
3333.85433,0.01279
3332.88995,0.01293
3331.92558,0.01307
3330.96120,0.01314
3329.99682,0.01313
3329.03244,0.01311
3328.06806,0.01307
3327.10369,0.01299
3326.13931,0.01290
3325.17493,0.01285
3324.21055,0.01284
3323.24618,0.01282
3322.28180,0.01287
3321.31742,0.01299
3320.35304,0.01311
3319.38866,0.01319
3318.42429,0.01320
3317.45991,0.01319
3316.49553,0.01319
3315.53115,0.01319
3314.56677,0.01319
3313.60240,0.01322
3312.63802,0.01325
3311.67364,0.01330
3310.70926,0.01342
3309.74488,0.01353
3308.78051,0.01357
3307.81613,0.01357
3306.85175,0.01351
3305.88737,0.01346
3304.92300,0.01340
3303.95862,0.01332
3302.99424,0.01325
3302.02986,0.01319
3301.06548,0.01317
3300.10111,0.01322
3299.13673,0.01333
3298.17235,0.01345
3297.20797,0.01353
3296.24359,0.01359
3295.27922,0.01363
3294.31484,0.01366
3293.35046,0.01367
3292.38608,0.01368
3291.42171,0.01364
3290.45733,0.01357
3289.49295,0.01357
3288.52857,0.01358
3287.56419,0.01356
3286.59982,0.01353
3285.63544,0.01348
3284.67106,0.01342
3283.70668,0.01339
3282.74230,0.01343
3281.77793,0.01348
3280.81355,0.01350
3279.84917,0.01351
3278.88479,0.01355
3277.92041,0.01361
3276.95604,0.01364
3275.99166,0.01365
3275.02728,0.01366
3274.06290,0.01366
3273.09853,0.01367
3272.13415,0.01369
3271.16977,0.01372
3270.20539,0.01375
3269.24101,0.01378
3268.27664,0.01379
3267.31226,0.01378
3266.34788,0.01377
3265.38350,0.01377
3264.41912,0.01377
3263.45475,0.01376
3262.49037,0.01374
3261.52599,0.01374
3260.56161,0.01372
3259.59724,0.01372
3258.63286,0.01380
3257.66848,0.01389
3256.70410,0.01394
3255.73972,0.01397
3254.77535,0.01399
3253.81097,0.01402
3252.84659,0.01404
3251.88221,0.01408
3250.91783,0.01410
3249.95346,0.01413
3248.98908,0.01414
3248.02470,0.01414
3247.06032,0.01416
3246.09594,0.01415
3245.13157,0.01411
3244.16719,0.01410
3243.20281,0.01411
3242.23843,0.01415
3241.27406,0.01420
3240.30968,0.01430
3239.34530,0.01439
3238.38092,0.01443
3237.41654,0.01443
3236.45217,0.01439
3235.48779,0.01434
3234.52341,0.01429
3233.55903,0.01428
3232.59465,0.01426
3231.63028,0.01423
3230.66590,0.01419
3229.70152,0.01418
3228.73714,0.01423
3227.77276,0.01427
3226.80839,0.01424
3225.84401,0.01421
3224.87963,0.01422
3223.91525,0.01428
3222.95088,0.01436
3221.98650,0.01444
3221.02212,0.01450
3220.05774,0.01452
3219.09336,0.01455
3218.12899,0.01463
3217.16461,0.01472
3216.20023,0.01475
3215.23585,0.01476
3214.27147,0.01476
3213.30710,0.01473
3212.34272,0.01471
3211.37834,0.01470
3210.41396,0.01467
3209.44959,0.01462
3208.48521,0.01454
3207.52083,0.01449
3206.55645,0.01447
3205.59207,0.01448
3204.62770,0.01452
3203.66332,0.01458
3202.69894,0.01464
3201.73456,0.01469
3200.77018,0.01478
3199.80581,0.01488
3198.84143,0.01492
3197.87705,0.01493
3196.91267,0.01490
3195.94829,0.01483
3194.98392,0.01478
3194.01954,0.01481
3193.05516,0.01487
3192.09078,0.01490
3191.12641,0.01494
3190.16203,0.01503
3189.19765,0.01514
3188.23327,0.01523
3187.26889,0.01527
3186.30452,0.01525
3185.34014,0.01515
3184.37576,0.01504
3183.41138,0.01503
3182.44700,0.01508
3181.48263,0.01512
3180.51825,0.01511
3179.55387,0.01512
3178.58949,0.01516
3177.62512,0.01519
3176.66074,0.01520
3175.69636,0.01519
3174.73198,0.01513
3173.76760,0.01504
3172.80323,0.01502
3171.83885,0.01509
3170.87447,0.01514
3169.91009,0.01514
3168.94571,0.01513
3167.98134,0.01511
3167.01696,0.01509
3166.05258,0.01506
3165.08820,0.01506
3164.12382,0.01508
3163.15945,0.01506
3162.19507,0.01504
3161.23069,0.01506
3160.26631,0.01513
3159.30194,0.01517
3158.33756,0.01521
3157.37318,0.01523
3156.40880,0.01526
3155.44442,0.01527
3154.48005,0.01525
3153.51567,0.01526
3152.55129,0.01528
3151.58691,0.01533
3150.62253,0.01537
3149.65816,0.01542
3148.69378,0.01549
3147.72940,0.01553
3146.76502,0.01553
3145.80065,0.01551
3144.83627,0.01549
3143.87189,0.01545
3142.90751,0.01538
3141.94313,0.01538
3140.97876,0.01543
3140.01438,0.01550
3139.05000,0.01555
3138.08562,0.01559
3137.12124,0.01562
3136.15687,0.01562
3135.19249,0.01562
3134.22811,0.01563
3133.26373,0.01562
3132.29935,0.01557
3131.33498,0.01556
3130.37060,0.01559
3129.40622,0.01563
3128.44184,0.01570
3127.47747,0.01575
3126.51309,0.01577
3125.54871,0.01579
3124.58433,0.01580
3123.61995,0.01579
3122.65558,0.01571
3121.69120,0.01563
3120.72682,0.01561
3119.76244,0.01565
3118.79806,0.01568
3117.83369,0.01569
3116.86931,0.01572
3115.90493,0.01572
3114.94055,0.01573
3113.97618,0.01575
3113.01180,0.01572
3112.04742,0.01566
3111.08304,0.01560
3110.11866,0.01562
3109.15429,0.01570
3108.18991,0.01577
3107.22553,0.01581
3106.26115,0.01586
3105.29677,0.01589
3104.33240,0.01587
3103.36802,0.01583
3102.40364,0.01579
3101.43926,0.01575
3100.47488,0.01574
3099.51051,0.01577
3098.54613,0.01576
3097.58175,0.01574
3096.61737,0.01573
3095.65300,0.01573
3094.68862,0.01574
3093.72424,0.01570
3092.75986,0.01562
3091.79548,0.01553
3090.83111,0.01552
3089.86673,0.01560
3088.90235,0.01571
3087.93797,0.01579
3086.97359,0.01582
3086.00922,0.01584
3085.04484,0.01586
3084.08046,0.01589
3083.11608,0.01591
3082.15171,0.01590
3081.18733,0.01589
3080.22295,0.01587
3079.25857,0.01591
3078.29419,0.01599
3077.32982,0.01604
3076.36544,0.01603
3075.40106,0.01597
3074.43668,0.01588
3073.47230,0.01578
3072.50793,0.01571
3071.54355,0.01563
3070.57917,0.01557
3069.61479,0.01555
3068.65041,0.01553
3067.68604,0.01552
3066.72166,0.01556
3065.75728,0.01561
3064.79290,0.01561
3063.82853,0.01559
3062.86415,0.01559
3061.89977,0.01560
3060.93539,0.01559
3059.97101,0.01556
3059.00664,0.01555
3058.04226,0.01558
3057.07788,0.01559
3056.11350,0.01562
3055.14912,0.01567
3054.18475,0.01571
3053.22037,0.01573
3052.25599,0.01573
3051.29161,0.01572
3050.32724,0.01564
3049.36286,0.01553
3048.39848,0.01546
3047.43410,0.01542
3046.46972,0.01539
3045.50535,0.01537
3044.54097,0.01536
3043.57659,0.01537
3042.61221,0.01540
3041.64783,0.01539
3040.68346,0.01537
3039.71908,0.01533
3038.75470,0.01526
3037.79032,0.01525
3036.82594,0.01529
3035.86157,0.01531
3034.89719,0.01531
3033.93281,0.01533
3032.96843,0.01536
3032.00406,0.01537
3031.03968,0.01539
3030.07530,0.01540
3029.11092,0.01539
3028.14654,0.01537
3027.18217,0.01534
3026.21779,0.01532
3025.25341,0.01524
3024.28903,0.01515
3023.32465,0.01513
3022.36028,0.01511
3021.39590,0.01505
3020.43152,0.01501
3019.46714,0.01499
3018.50276,0.01496
3017.53839,0.01493
3016.57401,0.01493
3015.60963,0.01492
3014.64525,0.01488
3013.68088,0.01481
3012.71650,0.01483
3011.75212,0.01491
3010.78774,0.01492
3009.82336,0.01489
3008.85899,0.01488
3007.89461,0.01488
3006.93023,0.01486
3005.96585,0.01486
3005.00147,0.01487
3004.03710,0.01484
3003.07272,0.01478
3002.10834,0.01472
3001.14396,0.01467
3000.17959,0.01462
2999.21521,0.01454
2998.25083,0.01448
2997.28645,0.01446
2996.32207,0.01446
2995.35770,0.01449
2994.39332,0.01456
2993.42894,0.01462
2992.46456,0.01464
2991.50018,0.01460
2990.53581,0.01454
2989.57143,0.01446
2988.60705,0.01436
2987.64267,0.01428
2986.67829,0.01422
2985.71392,0.01415
2984.74954,0.01412
2983.78516,0.01416
2982.82078,0.01424
2981.85641,0.01428
2980.89203,0.01431
2979.92765,0.01434
2978.96327,0.01436
2977.99889,0.01440
2977.03452,0.01442
2976.07014,0.01439
2975.10576,0.01430
2974.14138,0.01418
2973.17700,0.01407
2972.21263,0.01399
2971.24825,0.01390
2970.28387,0.01378
2969.31949,0.01372
2968.35512,0.01372
2967.39074,0.01374
2966.42636,0.01380
2965.46198,0.01382
2964.49760,0.01380
2963.53323,0.01378
2962.56885,0.01378
2961.60447,0.01378
2960.64009,0.01377
2959.67571,0.01372
2958.71134,0.01364
2957.74696,0.01357
2956.78258,0.01354
2955.81820,0.01352
2954.85382,0.01352
2953.88945,0.01353
2952.92507,0.01356
2951.96069,0.01362
2950.99631,0.01366
2950.03194,0.01365
2949.06756,0.01364
2948.10318,0.01361
2947.13880,0.01352
2946.17442,0.01342
2945.21005,0.01333
2944.24567,0.01326
2943.28129,0.01325
2942.31691,0.01323
2941.35253,0.01322
2940.38816,0.01320
2939.42378,0.01317
2938.45940,0.01317
2937.49502,0.01317
2936.53065,0.01315
2935.56627,0.01310
2934.60189,0.01306
2933.63751,0.01302
2932.67313,0.01302
2931.70876,0.01302
2930.74438,0.01297
2929.78000,0.01291
2928.81562,0.01286
2927.85124,0.01285
2926.88687,0.01283
2925.92249,0.01279
2924.95811,0.01272
2923.99373,0.01265
2923.02935,0.01261
2922.06498,0.01256
2921.10060,0.01252
2920.13622,0.01244
2919.17184,0.01237
2918.20747,0.01235
2917.24309,0.01237
2916.27871,0.01241
2915.31433,0.01248
2914.34995,0.01258
2913.38558,0.01267
2912.42120,0.01276
2911.45682,0.01286
2910.49244,0.01293
2909.52806,0.01293
2908.56369,0.01289
2907.59931,0.01286
2906.63493,0.01285
2905.67055,0.01283
2904.70618,0.01281
2903.74180,0.01279
2902.77742,0.01283
2901.81304,0.01287
2900.84866,0.01292
2899.88429,0.01297
2898.91991,0.01298
2897.95553,0.01295
2896.99115,0.01293
2896.02677,0.01292
2895.06240,0.01290
2894.09802,0.01288
2893.13364,0.01284
2892.16926,0.01281
2891.20488,0.01280
2890.24051,0.01280
2889.27613,0.01283
2888.31175,0.01287
2887.34737,0.01290
2886.38300,0.01292
2885.41862,0.01293
2884.45424,0.01294
2883.48986,0.01294
2882.52548,0.01293
2881.56111,0.01290
2880.59673,0.01285
2879.63235,0.01279
2878.66797,0.01275
2877.70359,0.01270
2876.73922,0.01267
2875.77484,0.01266
2874.81046,0.01263
2873.84608,0.01259
2872.88171,0.01255
2871.91733,0.01252
2870.95295,0.01253
2869.98857,0.01252
2869.02419,0.01252
2868.05982,0.01253
2867.09544,0.01253
2866.13106,0.01253
2865.16668,0.01252
2864.20230,0.01250
2863.23793,0.01245
2862.27355,0.01238
2861.30917,0.01232
2860.34479,0.01228
2859.38041,0.01228
2858.41604,0.01229
2857.45166,0.01230
2856.48728,0.01229
2855.52290,0.01226
2854.55853,0.01221
2853.59415,0.01212
2852.62977,0.01203
2851.66539,0.01198
2850.70101,0.01194
2849.73664,0.01192
2848.77226,0.01192
2847.80788,0.01196
2846.84350,0.01203
2845.87912,0.01208
2844.91475,0.01212
2843.95037,0.01217
2842.98599,0.01221
2842.02161,0.01225
2841.05724,0.01232
2840.09286,0.01240
2839.12848,0.01245
2838.16410,0.01247
2837.19972,0.01248
2836.23535,0.01246
2835.27097,0.01243
2834.30659,0.01240
2833.34221,0.01237
2832.37783,0.01236
2831.41346,0.01235
2830.44908,0.01231
2829.48470,0.01228
2828.52032,0.01228
2827.55594,0.01227
2826.59157,0.01224
2825.62719,0.01221
2824.66281,0.01217
2823.69843,0.01214
2822.73406,0.01211
2821.76968,0.01209
2820.80530,0.01207
2819.84092,0.01206
2818.87654,0.01202
2817.91217,0.01199
2816.94779,0.01199
2815.98341,0.01200
2815.01903,0.01199
2814.05465,0.01198
2813.09028,0.01196
2812.12590,0.01194
2811.16152,0.01196
2810.19714,0.01198
2809.23276,0.01200
2808.26839,0.01201
2807.30401,0.01200
2806.33963,0.01196
2805.37525,0.01194
2804.41088,0.01191
2803.44650,0.01187
2802.48212,0.01186
2801.51774,0.01187
2800.55336,0.01191
2799.58899,0.01197
2798.62461,0.01200
2797.66023,0.01199
2796.69585,0.01196
2795.73147,0.01190
2794.76710,0.01184
2793.80272,0.01180
2792.83834,0.01178
2791.87396,0.01177
2790.90959,0.01181
2789.94521,0.01185
2788.98083,0.01187
2788.01645,0.01188
2787.05207,0.01189
2786.08770,0.01189
2785.12332,0.01190
2784.15894,0.01190
2783.19456,0.01189
2782.23018,0.01187
2781.26581,0.01183
2780.30143,0.01179
2779.33705,0.01176
2778.37267,0.01174
2777.40829,0.01170
2776.44392,0.01167
2775.47954,0.01165
2774.51516,0.01167
2773.55078,0.01173
2772.58641,0.01179
2771.62203,0.01183
2770.65765,0.01187
2769.69327,0.01188
2768.72889,0.01189
2767.76452,0.01190
2766.80014,0.01191
2765.83576,0.01189
2764.87138,0.01184
2763.90700,0.01179
2762.94263,0.01176
2761.97825,0.01177
2761.01387,0.01176
2760.04949,0.01175
2759.08512,0.01176
2758.12074,0.01175
2757.15636,0.01174
2756.19198,0.01174
2755.22760,0.01174
2754.26323,0.01173
2753.29885,0.01172
2752.33447,0.01175
2751.37009,0.01176
2750.40571,0.01176
2749.44134,0.01176
2748.47696,0.01174
2747.51258,0.01175
2746.54820,0.01176
2745.58382,0.01176
2744.61945,0.01172
2743.65507,0.01168
2742.69069,0.01167
2741.72631,0.01168
2740.76194,0.01171
2739.79756,0.01173
2738.83318,0.01175
2737.86880,0.01177
2736.90442,0.01176
2735.94005,0.01174
2734.97567,0.01171
2734.01129,0.01168
2733.04691,0.01164
2732.08253,0.01161
2731.11816,0.01159
2730.15378,0.01156
2729.18940,0.01154
2728.22502,0.01154
2727.26065,0.01157
2726.29627,0.01158
2725.33189,0.01158
2724.36751,0.01158
2723.40313,0.01161
2722.43876,0.01163
2721.47438,0.01166
2720.51000,0.01167
2719.54562,0.01165
2718.58124,0.01161
2717.61687,0.01157
2716.65249,0.01155
2715.68811,0.01156
2714.72373,0.01156
2713.75935,0.01156
2712.79498,0.01160
2711.83060,0.01165
2710.86622,0.01169
2709.90184,0.01169
2708.93747,0.01168
2707.97309,0.01165
2707.00871,0.01162
2706.04433,0.01160
2705.07995,0.01162
2704.11558,0.01163
2703.15120,0.01160
2702.18682,0.01158
2701.22244,0.01158
2700.25806,0.01158
2699.29369,0.01156
2698.32931,0.01154
2697.36493,0.01154
2696.40055,0.01154
2695.43618,0.01154
2694.47180,0.01153
2693.50742,0.01153
2692.54304,0.01154
2691.57866,0.01155
2690.61429,0.01156
2689.64991,0.01156
2688.68553,0.01155
2687.72115,0.01153
2686.75677,0.01153
2685.79240,0.01154
2684.82802,0.01153
2683.86364,0.01151
2682.89926,0.01148
2681.93488,0.01146
2680.97051,0.01147
2680.00613,0.01148
2679.04175,0.01147
2678.07737,0.01145
2677.11300,0.01143
2676.14862,0.01142
2675.18424,0.01141
2674.21986,0.01139
2673.25548,0.01138
2672.29111,0.01137
2671.32673,0.01136
2670.36235,0.01135
2669.39797,0.01137
2668.43359,0.01139
2667.46922,0.01142
2666.50484,0.01145
2665.54046,0.01148
2664.57608,0.01152
2663.61171,0.01155
2662.64733,0.01156
2661.68295,0.01158
2660.71857,0.01160
2659.75419,0.01162
2658.78982,0.01164
2657.82544,0.01167
2656.86106,0.01168
2655.89668,0.01168
2654.93230,0.01166
2653.96793,0.01163
2653.00355,0.01161
2652.03917,0.01158
2651.07479,0.01157
2650.11041,0.01158
2649.14604,0.01159
2648.18166,0.01159
2647.21728,0.01159
2646.25290,0.01161
2645.28853,0.01166
2644.32415,0.01169
2643.35977,0.01168
2642.39539,0.01165
2641.43101,0.01162
2640.46664,0.01158
2639.50226,0.01155
2638.53788,0.01153
2637.57350,0.01149
2636.60912,0.01144
2635.64475,0.01139
2634.68037,0.01136
2633.71599,0.01136
2632.75161,0.01135
2631.78724,0.01134
2630.82286,0.01135
2629.85848,0.01136
2628.89410,0.01137
2627.92972,0.01139
2626.96535,0.01142
2626.00097,0.01145
2625.03659,0.01147
2624.07221,0.01144
2623.10783,0.01144
2622.14346,0.01145
2621.17908,0.01142
2620.21470,0.01142
2619.25032,0.01140
2618.28594,0.01136
2617.32157,0.01134
2616.35719,0.01133
2615.39281,0.01136
2614.42843,0.01137
2613.46406,0.01134
2612.49968,0.01135
2611.53530,0.01139
2610.57092,0.01138
2609.60654,0.01131
2608.64217,0.01125
2607.67779,0.01120
2606.71341,0.01116
2605.74903,0.01117
2604.78465,0.01120
2603.82028,0.01124
2602.85590,0.01125
2601.89152,0.01125
2600.92714,0.01130
2599.96276,0.01132
2598.99839,0.01127
2598.03401,0.01119
2597.06963,0.01112
2596.10525,0.01109
2595.14088,0.01110
2594.17650,0.01114
2593.21212,0.01118
2592.24774,0.01119
2591.28336,0.01116
2590.31899,0.01112
2589.35461,0.01109
2588.39023,0.01106
2587.42585,0.01103
2586.46147,0.01100
2585.49710,0.01099
2584.53272,0.01104
2583.56834,0.01111
2582.60396,0.01113
2581.63959,0.01112
2580.67521,0.01112
2579.71083,0.01113
2578.74645,0.01114
2577.78207,0.01113
2576.81770,0.01114
2575.85332,0.01112
2574.88894,0.01108
2573.92456,0.01104
2572.96018,0.01098
2571.99581,0.01091
2571.03143,0.01082
2570.06705,0.01080
2569.10267,0.01084
2568.13829,0.01091
2567.17392,0.01097
2566.20954,0.01100
2565.24516,0.01103
2564.28078,0.01103
2563.31641,0.01103
2562.35203,0.01103
2561.38765,0.01101
2560.42327,0.01102
2559.45889,0.01106
2558.49452,0.01109
2557.53014,0.01114
2556.56576,0.01117
2555.60138,0.01117
2554.63700,0.01112
2553.67263,0.01106
2552.70825,0.01104
2551.74387,0.01107
2550.77949,0.01110
2549.81512,0.01110
2548.85074,0.01113
2547.88636,0.01115
2546.92198,0.01110
2545.95760,0.01106
2544.99323,0.01104
2544.02885,0.01102
2543.06447,0.01096
2542.10009,0.01088
2541.13571,0.01083
2540.17134,0.01076
2539.20696,0.01069
2538.24258,0.01064
2537.27820,0.01060
2536.31382,0.01057
2535.34945,0.01056
2534.38507,0.01058
2533.42069,0.01063
2532.45631,0.01069
2531.49194,0.01071
2530.52756,0.01067
2529.56318,0.01064
2528.59880,0.01060
2527.63442,0.01056
2526.67005,0.01052
2525.70567,0.01049
2524.74129,0.01052
2523.77691,0.01058
2522.81253,0.01059
2521.84816,0.01056
2520.88378,0.01053
2519.91940,0.01050
2518.95502,0.01049
2517.99065,0.01054
2517.02627,0.01055
2516.06189,0.01057
2515.09751,0.01061
2514.13313,0.01063
2513.16876,0.01063
2512.20438,0.01068
2511.24000,0.01073
2510.27562,0.01070
2509.31124,0.01065
2508.34687,0.01064
2507.38249,0.01071
2506.41811,0.01080
2505.45373,0.01081
2504.48935,0.01082
2503.52498,0.01084
2502.56060,0.01082
2501.59622,0.01077
2500.63184,0.01077
2499.66747,0.01071
2498.70309,0.01057
2497.73871,0.01048
2496.77433,0.01048
2495.80995,0.01055
2494.84558,0.01063
2493.88120,0.01066
2492.91682,0.01069
2491.95244,0.01073
2490.98806,0.01075
2490.02369,0.01068
2489.05931,0.01057
2488.09493,0.01042
2487.13055,0.01029
2486.16618,0.01026
2485.20180,0.01028
2484.23742,0.01033
2483.27304,0.01039
2482.30866,0.01041
2481.34429,0.01045
2480.37991,0.01054
2479.41553,0.01063
2478.45115,0.01067
2477.48677,0.01071
2476.52240,0.01073
2475.55802,0.01076
2474.59364,0.01080
2473.62926,0.01081
2472.66488,0.01078
2471.70051,0.01069
2470.73613,0.01059
2469.77175,0.01054
2468.80737,0.01054
2467.84300,0.01057
2466.87862,0.01055
2465.91424,0.01049
2464.94986,0.01043
2463.98548,0.01038
2463.02111,0.01036
2462.05673,0.01034
2461.09235,0.01034
2460.12797,0.01032
2459.16359,0.01028
2458.19922,0.01027
2457.23484,0.01030
2456.27046,0.01037
2455.30608,0.01038
2454.34171,0.01036
2453.37733,0.01034
2452.41295,0.01034
2451.44857,0.01041
2450.48419,0.01050
2449.51982,0.01060
2448.55544,0.01063
2447.59106,0.01063
2446.62668,0.01067
2445.66230,0.01068
2444.69793,0.01059
2443.73355,0.01043
2442.76917,0.01028
2441.80479,0.01015
2440.84041,0.01011
2439.87604,0.01016
2438.91166,0.01021
2437.94728,0.01026
2436.98290,0.01033
2436.01853,0.01035
2435.05415,0.01034
2434.08977,0.01032
2433.12539,0.01024
2432.16101,0.01014
2431.19664,0.01006
2430.23226,0.01002
2429.26788,0.01005
2428.30350,0.01012
2427.33912,0.01018
2426.37475,0.01022
2425.41037,0.01023
2424.44599,0.01017
2423.48161,0.01014
2422.51724,0.01015
2421.55286,0.01010
2420.58848,0.01000
2419.62410,0.00993
2418.65972,0.00992
2417.69535,0.00999
2416.73097,0.01006
2415.76659,0.01008
2414.80221,0.01003
2413.83783,0.00996
2412.87346,0.00992
2411.90908,0.00985
2410.94470,0.00978
2409.98032,0.00974
2409.01594,0.00975
2408.05157,0.00977
2407.08719,0.00983
2406.12281,0.00992
2405.15843,0.00999
2404.19406,0.01001
2403.22968,0.01001
2402.26530,0.01002
2401.30092,0.01000
2400.33654,0.00994
2399.37217,0.00994
2398.40779,0.00994
2397.44341,0.00991
2396.47903,0.00990
2395.51465,0.00993
2394.55028,0.00997
2393.58590,0.01000
2392.62152,0.01004
2391.65714,0.01010
2390.69276,0.01011
2389.72839,0.01006
2388.76401,0.00998
2387.79963,0.00991
2386.83525,0.00986
2385.87088,0.00984
2384.90650,0.00984
2383.94212,0.00985
2382.97774,0.00987
2382.01336,0.00991
2381.04899,0.00998
2380.08461,0.01001
2379.12023,0.00999
2378.15585,0.00997
2377.19147,0.00999
2376.22710,0.01002
2375.26272,0.01004
2374.29834,0.01003
2373.33396,0.00999
2372.36959,0.00992
2371.40521,0.00985
2370.44083,0.00980
2369.47645,0.00977
2368.51207,0.00974
2367.54770,0.00972
2366.58332,0.00977
2365.61894,0.00989
2364.65456,0.00999
2363.69018,0.01003
2362.72581,0.01009
2361.76143,0.01014
2360.79705,0.01016
2359.83267,0.01017
2358.86829,0.01017
2357.90392,0.01016
2356.93954,0.01013
2355.97516,0.01010
2355.01078,0.01011
2354.04641,0.01013
2353.08203,0.01010
2352.11765,0.01007
2351.15327,0.01010
2350.18889,0.01014
2349.22452,0.01018
2348.26014,0.01022
2347.29576,0.01024
2346.33138,0.01027
2345.36700,0.01031
2344.40263,0.01034
2343.43825,0.01034
2342.47387,0.01029
2341.50949,0.01022
2340.54512,0.01018
2339.58074,0.01018
2338.61636,0.01017
2337.65198,0.01018
2336.68760,0.01023
2335.72323,0.01025
2334.75885,0.01030
2333.79447,0.01035
2332.83009,0.01036
2331.86571,0.01033
2330.90134,0.01028
2329.93696,0.01031
2328.97258,0.01046
2328.00820,0.01067
2327.04382,0.01086
2326.07945,0.01100
2325.11507,0.01110
2324.15069,0.01116
2323.18631,0.01120
2322.22194,0.01118
2321.25756,0.01107
2320.29318,0.01092
2319.32880,0.01076
2318.36442,0.01068
2317.40005,0.01065
2316.43567,0.01062
2315.47129,0.01055
2314.50691,0.01046
2313.54253,0.01038
2312.57816,0.01032
2311.61378,0.01027
2310.64940,0.01020
2309.68502,0.01014
2308.72065,0.01009
2307.75627,0.01005
2306.79189,0.01002
2305.82751,0.00999
2304.86313,0.00998
2303.89876,0.00999
2302.93438,0.01000
2301.97000,0.00999
2301.00562,0.00999
2300.04124,0.00999
2299.07687,0.00999
2298.11249,0.00999
2297.14811,0.00998
2296.18373,0.00998
2295.21935,0.00998
2294.25498,0.00998
2293.29060,0.00997
2292.32622,0.00997
2291.36184,0.00997
2290.39747,0.00997
2289.43309,0.00997
2288.46871,0.00996
2287.50433,0.00996
2286.53995,0.00996
2285.57558,0.00996
2284.61120,0.00995
2283.64682,0.00995
2282.68244,0.00995
2281.71806,0.00995
2280.75369,0.00995
2279.78931,0.00994
2278.82493,0.00994
2277.86055,0.00994
2276.89618,0.00994
2275.93180,0.00993
2274.96742,0.00993
2274.00304,0.00993
2273.03866,0.00993
2272.07429,0.00992
2271.10991,0.00992
2270.14553,0.00992
2269.18115,0.00992
2268.21677,0.00992
2267.25240,0.00991
2266.28802,0.00991
2265.32364,0.00991
2264.35926,0.00991
2263.39488,0.00990
2262.43051,0.00990
2261.46613,0.00990
2260.50175,0.00990
2259.53737,0.00990
2258.57300,0.00989
2257.60862,0.00989
2256.64424,0.00989
2255.67986,0.00989
2254.71548,0.00988
2253.75111,0.00988
2252.78673,0.00988
2251.82235,0.00988
2250.85797,0.00988
2249.89359,0.00987
2248.92922,0.00987
2247.96484,0.00987
2247.00046,0.00987
2246.03608,0.00986
2245.07171,0.00986
2244.10733,0.00986
2243.14295,0.00986
2242.17857,0.00985
2241.21419,0.00985
2240.24982,0.00985
2239.28544,0.00985
2238.32106,0.00985
2237.35668,0.00984
2236.39230,0.00984
2235.42793,0.00984
2234.46355,0.00984
2233.49917,0.00983
2232.53479,0.00983
2231.57041,0.00983
2230.60604,0.00983
2229.64166,0.00983
2228.67728,0.00982
2227.71290,0.00982
2226.74853,0.00982
2225.78415,0.00982
2224.81977,0.00981
2223.85539,0.00981
2222.89101,0.00981
2221.92664,0.00981
2220.96226,0.00981
2219.99788,0.00980
2219.03350,0.00980
2218.06912,0.00980
2217.10475,0.00980
2216.14037,0.00979
2215.17599,0.00979
2214.21161,0.00979
2213.24724,0.00979
2212.28286,0.00978
2211.31848,0.00978
2210.35410,0.00978
2209.38972,0.00978
2208.42535,0.00978
2207.46097,0.00977
2206.49659,0.00977
2205.53221,0.00977
2204.56783,0.00977
2203.60346,0.00976
2202.63908,0.00976
2201.67470,0.00976
2200.71032,0.00976
2199.74594,0.00976
2198.78157,0.00975
2197.81719,0.00975
2196.85281,0.00975
2195.88843,0.00975
2194.92406,0.00974
2193.95968,0.00974
2192.99530,0.00974
2192.03092,0.00974
2191.06654,0.00974
2190.10217,0.00973
2189.13779,0.00973
2188.17341,0.00973
2187.20903,0.00973
2186.24465,0.00972
2185.28028,0.00972
2184.31590,0.00972
2183.35152,0.00972
2182.38714,0.00971
2181.42276,0.00971
2180.45839,0.00971
2179.49401,0.00971
2178.52963,0.00971
2177.56525,0.00970
2176.60088,0.00970
2175.63650,0.00970
2174.67212,0.00970
2173.70774,0.00969
2172.74336,0.00969
2171.77899,0.00969
2170.81461,0.00969
2169.85023,0.00969
2168.88585,0.00968
2167.92147,0.00968
2166.95710,0.00968
2165.99272,0.00968
2165.02834,0.00967
2164.06396,0.00967
2163.09959,0.00967
2162.13521,0.00967
2161.17083,0.00967
2160.20645,0.00966
2159.24207,0.00966
2158.27770,0.00966
2157.31332,0.00966
2156.34894,0.00965
2155.38456,0.00965
2154.42018,0.00965
2153.45581,0.00965
2152.49143,0.00964
2151.52705,0.00964
2150.56267,0.00964
2149.59829,0.00964
2148.63392,0.00964
2147.66954,0.00963
2146.70516,0.00963
2145.74078,0.00963
2144.77641,0.00963
2143.81203,0.00962
2142.84765,0.00962
2141.88327,0.00962
2140.91889,0.00962
2139.95452,0.00962
2138.99014,0.00961
2138.02576,0.00961
2137.06138,0.00961
2136.09700,0.00961
2135.13263,0.00960
2134.16825,0.00960
2133.20387,0.00960
2132.23949,0.00960
2131.27512,0.00959
2130.31074,0.00959
2129.34636,0.00959
2128.38198,0.00959
2127.41760,0.00959
2126.45323,0.00958
2125.48885,0.00958
2124.52447,0.00958
2123.56009,0.00958
2122.59571,0.00957
2121.63134,0.00957
2120.66696,0.00957
2119.70258,0.00957
2118.73820,0.00957
2117.77382,0.00956
2116.80945,0.00956
2115.84507,0.00956
2114.88069,0.00956
2113.91631,0.00955
2112.95194,0.00955
2111.98756,0.00955
2111.02318,0.00955
2110.05880,0.00955
2109.09442,0.00954
2108.13005,0.00954
2107.16567,0.00954
2106.20129,0.00954
2105.23691,0.00953
2104.27253,0.00953
2103.30816,0.00953
2102.34378,0.00953
2101.37940,0.00952
2100.41502,0.00952
2099.45065,0.00952
2098.48627,0.00952
2097.52189,0.00952
2096.55751,0.00951
2095.59313,0.00951
2094.62876,0.00951
2093.66438,0.00951
2092.70000,0.00950
2091.73562,0.00950
2090.77124,0.00950
2089.80687,0.00950
2088.84249,0.00950
2087.87811,0.00949
2086.91373,0.00949
2085.94935,0.00949
2084.98498,0.00949
2084.02060,0.00948
2083.05622,0.00948
2082.09184,0.00948
2081.12747,0.00948
2080.16309,0.00948
2079.19871,0.00947
2078.23433,0.00947
2077.26995,0.00947
2076.30558,0.00947
2075.34120,0.00946
2074.37682,0.00946
2073.41244,0.00946
2072.44806,0.00946
2071.48369,0.00945
2070.51931,0.00945
2069.55493,0.00945
2068.59055,0.00945
2067.62618,0.00945
2066.66180,0.00944
2065.69742,0.00944
2064.73304,0.00944
2063.76866,0.00944
2062.80429,0.00943
2061.83991,0.00943
2060.87553,0.00943
2059.91115,0.00943
2058.94677,0.00943
2057.98240,0.00942
2057.01802,0.00942
2056.05364,0.00942
2055.08926,0.00942
2054.12488,0.00941
2053.16051,0.00941
2052.19613,0.00941
2051.23175,0.00941
2050.26737,0.00941
2049.30300,0.00940
2048.33862,0.00940
2047.37424,0.00940
2046.40986,0.00940
2045.44548,0.00939
2044.48111,0.00939
2043.51673,0.00939
2042.55235,0.00939
2041.58797,0.00938
2040.62359,0.00938
2039.65922,0.00938
2038.69484,0.00938
2037.73046,0.00938
2036.76608,0.00937
2035.80171,0.00937
2034.83733,0.00937
2033.87295,0.00937
2032.90857,0.00936
2031.94419,0.00936
2030.97982,0.00936
2030.01544,0.00936
2029.05106,0.00936
2028.08668,0.00935
2027.12230,0.00935
2026.15793,0.00935
2025.19355,0.00935
2024.22917,0.00934
2023.26479,0.00934
2022.30041,0.00934
2021.33604,0.00934
2020.37166,0.00934
2019.40728,0.00933
2018.44290,0.00933
2017.47853,0.00933
2016.51415,0.00933
2015.54977,0.00932
2014.58539,0.00932
2013.62101,0.00932
2012.65664,0.00932
2011.69226,0.00931
2010.72788,0.00931
2009.76350,0.00931
2008.79912,0.00931
2007.83475,0.00931
2006.87037,0.00930
2005.90599,0.00930
2004.94161,0.00930
2003.97724,0.00930
2003.01286,0.00929
2002.04848,0.00929
2001.08410,0.00929
2000.11972,0.00929
1999.15535,0.00929
1998.19097,0.00928
1997.22659,0.00928
1996.26221,0.00928
1995.29783,0.00928
1994.33346,0.00927
1993.36908,0.00927
1992.40470,0.00927
1991.44032,0.00927
1990.47594,0.00927
1989.51157,0.00926
1988.54719,0.00926
1987.58281,0.00926
1986.61843,0.00926
1985.65406,0.00925
1984.68968,0.00925
1983.72530,0.00925
1982.76092,0.00925
1981.79654,0.00924
1980.83217,0.00924
1979.86779,0.00924
1978.90341,0.00924
1977.93903,0.00924
1976.97465,0.00923
1976.01028,0.00923
1975.04590,0.00923
1974.08152,0.00923
1973.11714,0.00922
1972.15276,0.00922
1971.18839,0.00922
1970.22401,0.00922
1969.25963,0.00922
1968.29525,0.00921
1967.33088,0.00921
1966.36650,0.00921
1965.40212,0.00921
1964.43774,0.00920
1963.47336,0.00920
1962.50899,0.00920
1961.54461,0.00920
1960.58023,0.00919
1959.61585,0.00919
1958.65147,0.00919
1957.68710,0.00919
1956.72272,0.00919
1955.75834,0.00918
1954.79396,0.00918
1953.82959,0.00918
1952.86521,0.00918
1951.90083,0.00917
1950.93645,0.00917
1949.97207,0.00917
1949.00770,0.00917
1948.04332,0.00917
1947.07894,0.00916
1946.11456,0.00916
1945.15018,0.00916
1944.18581,0.00916
1943.22143,0.00915
1942.25705,0.00915
1941.29267,0.00915
1940.32829,0.00915
1939.36392,0.00915
1938.39954,0.00914
1937.43516,0.00914
1936.47078,0.00914
1935.50641,0.00914
1934.54203,0.00913
1933.57765,0.00913
1932.61327,0.00913
1931.64889,0.00912
1930.68452,0.00914
1929.72014,0.00917
1928.75576,0.00915
1927.79138,0.00907
1926.82700,0.00903
1925.86263,0.00897
1924.89825,0.00889
1923.93387,0.00885
1922.96949,0.00888
1922.00512,0.00889
1921.04074,0.00887
1920.07636,0.00888
1919.11198,0.00894
1918.14760,0.00902
1917.18323,0.00910
1916.21885,0.00922
1915.25447,0.00934
1914.29009,0.00937
1913.32571,0.00943
1912.36134,0.00957
1911.39696,0.00967
1910.43258,0.00963
1909.46820,0.00955
1908.50382,0.00952
1907.53945,0.00950
1906.57507,0.00948
1905.61069,0.00943
1904.64631,0.00937
1903.68194,0.00925
1902.71756,0.00905
1901.75318,0.00893
1900.78880,0.00890
1899.82442,0.00885
1898.86005,0.00877
1897.89567,0.00874
1896.93129,0.00876
1895.96691,0.00877
1895.00253,0.00879
1894.03816,0.00883
1893.07378,0.00892
1892.10940,0.00899
1891.14502,0.00898
1890.18065,0.00902
1889.21627,0.00911
1888.25189,0.00918
1887.28751,0.00917
1886.32313,0.00909
1885.35876,0.00901
1884.39438,0.00898
1883.43000,0.00898
1882.46562,0.00898
1881.50124,0.00902
1880.53687,0.00903
1879.57249,0.00902
1878.60811,0.00906
1877.64373,0.00912
1876.67935,0.00920
1875.71498,0.00924
1874.75060,0.00926
1873.78622,0.00937
1872.82184,0.00949
1871.85747,0.00956
1870.89309,0.00953
1869.92871,0.00947
1868.96433,0.00937
1867.99995,0.00923
1867.03558,0.00908
1866.07120,0.00899
1865.10682,0.00895
1864.14244,0.00895
1863.17806,0.00899
1862.21369,0.00908
1861.24931,0.00918
1860.28493,0.00922
1859.32055,0.00918
1858.35618,0.00911
1857.39180,0.00905
1856.42742,0.00899
1855.46304,0.00897
1854.49866,0.00898
1853.53429,0.00901
1852.56991,0.00906
1851.60553,0.00909
1850.64115,0.00910
1849.67677,0.00912
1848.71240,0.00914
1847.74802,0.00911
1846.78364,0.00905
1845.81926,0.00904
1844.85488,0.00906
1843.89051,0.00910
1842.92613,0.00912
1841.96175,0.00914
1840.99737,0.00916
1840.03300,0.00915
1839.06862,0.00917
1838.10424,0.00923
1837.13986,0.00927
1836.17548,0.00927
1835.21111,0.00925
1834.24673,0.00925
1833.28235,0.00924
1832.31797,0.00921
1831.35359,0.00918
1830.38922,0.00912
1829.42484,0.00910
1828.46046,0.00914
1827.49608,0.00919
1826.53171,0.00923
1825.56733,0.00925
1824.60295,0.00930
1823.63857,0.00935
1822.67419,0.00936
1821.70982,0.00934
1820.74544,0.00932
1819.78106,0.00930
1818.81668,0.00928
1817.85230,0.00929
1816.88793,0.00931
1815.92355,0.00931
1814.95917,0.00932
1813.99479,0.00934
1813.03041,0.00937
1812.06604,0.00938
1811.10166,0.00940
1810.13728,0.00945
1809.17290,0.00948
1808.20853,0.00949
1807.24415,0.00950
1806.27977,0.00951
1805.31539,0.00954
1804.35101,0.00957
1803.38664,0.00959
1802.42226,0.00959
1801.45788,0.00957
1800.49350,0.00954
1799.52912,0.00955
1798.56475,0.00958
1797.60037,0.00958
1796.63599,0.00959
1795.67161,0.00964
1794.70724,0.00968
1793.74286,0.00973
1792.77848,0.00977
1791.81410,0.00975
1790.84972,0.00973
1789.88535,0.00972
1788.92097,0.00972
1787.95659,0.00972
1786.99221,0.00971
1786.02783,0.00972
1785.06346,0.00976
1784.09908,0.00983
1783.13470,0.00988
1782.17032,0.00991
1781.20594,0.00992
1780.24157,0.00989
1779.27719,0.00987
1778.31281,0.00988
1777.34843,0.00991
1776.38406,0.00992
1775.41968,0.00994
1774.45530,0.00998
1773.49092,0.01005
1772.52654,0.01011
1771.56217,0.01014
1770.59779,0.01015
1769.63341,0.01012
1768.66903,0.01008
1767.70465,0.01005
1766.74028,0.01006
1765.77590,0.01007
1764.81152,0.01007
1763.84714,0.01007
1762.88276,0.01009
1761.91839,0.01013
1760.95401,0.01016
1759.98963,0.01018
1759.02525,0.01019
1758.06088,0.01020
1757.09650,0.01024
1756.13212,0.01029
1755.16774,0.01033
1754.20336,0.01035
1753.23899,0.01035
1752.27461,0.01036
1751.31023,0.01036
1750.34585,0.01038
1749.38147,0.01038
1748.41710,0.01037
1747.45272,0.01036
1746.48834,0.01036
1745.52396,0.01038
1744.55959,0.01040
1743.59521,0.01040
1742.63083,0.01040
1741.66645,0.01040
1740.70207,0.01037
1739.73770,0.01037
1738.77332,0.01039
1737.80894,0.01041
1736.84456,0.01043
1735.88018,0.01046
1734.91581,0.01048
1733.95143,0.01050
1732.98705,0.01052
1732.02267,0.01053
1731.05829,0.01053
1730.09392,0.01052
1729.12954,0.01051
1728.16516,0.01052
1727.20078,0.01054
1726.23641,0.01057
1725.27203,0.01060
1724.30765,0.01061
1723.34327,0.01062
1722.37889,0.01063
1721.41452,0.01065
1720.45014,0.01065
1719.48576,0.01065
1718.52138,0.01067
1717.55700,0.01069
1716.59263,0.01071
1715.62825,0.01073
1714.66387,0.01074
1713.69949,0.01073
1712.73512,0.01071
1711.77074,0.01072
1710.80636,0.01073
1709.84198,0.01072
1708.87760,0.01072
1707.91323,0.01072
1706.94885,0.01072
1705.98447,0.01072
1705.02009,0.01074
1704.05571,0.01076
1703.09134,0.01076
1702.12696,0.01076
1701.16258,0.01077
1700.19820,0.01079
1699.23382,0.01081
1698.26945,0.01081
1697.30507,0.01080
1696.34069,0.01077
1695.37631,0.01076
1694.41194,0.01076
1693.44756,0.01077
1692.48318,0.01076
1691.51880,0.01074
1690.55442,0.01072
1689.59005,0.01072
1688.62567,0.01073
1687.66129,0.01075
1686.69691,0.01077
1685.73253,0.01079
1684.76816,0.01082
1683.80378,0.01087
1682.83940,0.01090
1681.87502,0.01092
1680.91065,0.01092
1679.94627,0.01092
1678.98189,0.01091
1678.01751,0.01090
1677.05313,0.01089
1676.08876,0.01089
1675.12438,0.01090
1674.16000,0.01091
1673.19562,0.01093
1672.23124,0.01093
1671.26687,0.01094
1670.30249,0.01094
1669.33811,0.01095
1668.37373,0.01095
1667.40935,0.01095
1666.44498,0.01094
1665.48060,0.01095
1664.51622,0.01096
1663.55184,0.01098
1662.58747,0.01099
1661.62309,0.01099
1660.65871,0.01098
1659.69433,0.01097
1658.72995,0.01099
1657.76558,0.01103
1656.80120,0.01109
1655.83682,0.01115
1654.87244,0.01119
1653.90806,0.01120
1652.94369,0.01122
1651.97931,0.01123
1651.01493,0.01123
1650.05055,0.01121
1649.08618,0.01120
1648.12180,0.01119
1647.15742,0.01122
1646.19304,0.01127
1645.22866,0.01133
1644.26429,0.01136
1643.29991,0.01137
1642.33553,0.01136
1641.37115,0.01137
1640.40677,0.01139
1639.44240,0.01139
1638.47802,0.01138
1637.51364,0.01137
1636.54926,0.01135
1635.58488,0.01133
1634.62051,0.01132
1633.65613,0.01131
1632.69175,0.01131
1631.72737,0.01130
1630.76300,0.01128
1629.79862,0.01129
1628.83424,0.01130
1627.86986,0.01132
1626.90548,0.01132
1625.94111,0.01131
1624.97673,0.01130
1624.01235,0.01128
1623.04797,0.01126
1622.08359,0.01127
1621.11922,0.01130
1620.15484,0.01130
1619.19046,0.01129
1618.22608,0.01128
1617.26171,0.01127
1616.29733,0.01127
1615.33295,0.01125
1614.36857,0.01124
1613.40419,0.01123
1612.43982,0.01120
1611.47544,0.01119
1610.51106,0.01120
1609.54668,0.01121
1608.58230,0.01120
1607.61793,0.01118
1606.65355,0.01114
1605.68917,0.01111
1604.72479,0.01108
1603.76041,0.01106
1602.79604,0.01105
1601.83166,0.01104
1600.86728,0.01103
1599.90290,0.01102
1598.93853,0.01102
1597.97415,0.01103
1597.00977,0.01105
1596.04539,0.01106
1595.08101,0.01105
1594.11664,0.01106
1593.15226,0.01107
1592.18788,0.01110
1591.22350,0.01111
1590.25912,0.01111
1589.29475,0.01111
1588.33037,0.01112
1587.36599,0.01112
1586.40161,0.01113
1585.43724,0.01112
1584.47286,0.01111
1583.50848,0.01111
1582.54410,0.01112
1581.57972,0.01115
1580.61535,0.01120
1579.65097,0.01125
1578.68659,0.01128
1577.72221,0.01132
1576.75783,0.01135
1575.79346,0.01137
1574.82908,0.01139
1573.86470,0.01141
1572.90032,0.01141
1571.93594,0.01140
1570.97157,0.01140
1570.00719,0.01140
1569.04281,0.01142
1568.07843,0.01144
1567.11406,0.01144
1566.14968,0.01146
1565.18530,0.01150
1564.22092,0.01156
1563.25654,0.01164
1562.29217,0.01172
1561.32779,0.01177
1560.36341,0.01182
1559.39903,0.01188
1558.43465,0.01192
1557.47028,0.01195
1556.50590,0.01197
1555.54152,0.01198
1554.57714,0.01201
1553.61276,0.01204
1552.64839,0.01208
1551.68401,0.01212
1550.71963,0.01214
1549.75525,0.01215
1548.79088,0.01217
1547.82650,0.01220
1546.86212,0.01222
1545.89774,0.01223
1544.93336,0.01226
1543.96899,0.01231
1543.00461,0.01237
1542.04023,0.01241
1541.07585,0.01244
1540.11147,0.01244
1539.14710,0.01245
1538.18272,0.01247
1537.21834,0.01247
1536.25396,0.01246
1535.28959,0.01245
1534.32521,0.01245
1533.36083,0.01248
1532.39645,0.01253
1531.43207,0.01258
1530.46770,0.01262
1529.50332,0.01266
1528.53894,0.01271
1527.57456,0.01277
1526.61018,0.01285
1525.64581,0.01292
1524.68143,0.01299
1523.71705,0.01304
1522.75267,0.01310
1521.78829,0.01318
1520.82392,0.01326
1519.85954,0.01335
1518.89516,0.01345
1517.93078,0.01355
1516.96641,0.01366
1516.00203,0.01377
1515.03765,0.01390
1514.07327,0.01403
1513.10889,0.01417
1512.14452,0.01431
1511.18014,0.01450
1510.21576,0.01469
1509.25138,0.01486
1508.28700,0.01504
1507.32263,0.01521
1506.35825,0.01537
1505.39387,0.01551
1504.42949,0.01565
1503.46512,0.01578
1502.50074,0.01591
1501.53636,0.01604
1500.57198,0.01618
1499.60760,0.01630
1498.64323,0.01640
1497.67885,0.01646
1496.71447,0.01651
1495.75009,0.01656
1494.78571,0.01661
1493.82134,0.01664
1492.85696,0.01665
1491.89258,0.01665
1490.92820,0.01664
1489.96382,0.01662
1488.99945,0.01658
1488.03507,0.01652
1487.07069,0.01644
1486.10631,0.01635
1485.14194,0.01626
1484.17756,0.01616
1483.21318,0.01604
1482.24880,0.01590
1481.28442,0.01575
1480.32005,0.01560
1479.35567,0.01545
1478.39129,0.01528
1477.42691,0.01511
1476.46253,0.01492
1475.49816,0.01475
1474.53378,0.01456
1473.56940,0.01437
1472.60502,0.01417
1471.64065,0.01397
1470.67627,0.01376
1469.71189,0.01357
1468.74751,0.01340
1467.78313,0.01322
1466.81876,0.01305
1465.85438,0.01288
1464.89000,0.01272
1463.92562,0.01258
1462.96124,0.01245
1461.99687,0.01234
1461.03249,0.01224
1460.06811,0.01212
1459.10373,0.01198
1458.13935,0.01184
1457.17498,0.01169
1456.21060,0.01154
1455.24622,0.01139
1454.28184,0.01125
1453.31747,0.01112
1452.35309,0.01100
1451.38871,0.01090
1450.42433,0.01080
1449.45995,0.01071
1448.49558,0.01061
1447.53120,0.01049
1446.56682,0.01037
1445.60244,0.01025
1444.63806,0.01014
1443.67369,0.01003
1442.70931,0.00992
1441.74493,0.00983
1440.78055,0.00977
1439.81618,0.00970
1438.85180,0.00962
1437.88742,0.00956
1436.92304,0.00949
1435.95866,0.00942
1434.99429,0.00935
1434.02991,0.00929
1433.06553,0.00922
1432.10115,0.00915
1431.13677,0.00909
1430.17240,0.00904
1429.20802,0.00898
1428.24364,0.00892
1427.27926,0.00888
1426.31488,0.00883
1425.35051,0.00877
1424.38613,0.00871
1423.42175,0.00868
1422.45737,0.00865
1421.49300,0.00863
1420.52862,0.00861
1419.56424,0.00857
1418.59986,0.00850
1417.63548,0.00844
1416.67111,0.00839
1415.70673,0.00835
1414.74235,0.00829
1413.77797,0.00823
1412.81359,0.00819
1411.84922,0.00817
1410.88484,0.00815
1409.92046,0.00813
1408.95608,0.00811
1407.99171,0.00809
1407.02733,0.00807
1406.06295,0.00806
1405.09857,0.00805
1404.13419,0.00804
1403.16982,0.00801
1402.20544,0.00798
1401.24106,0.00795
1400.27668,0.00790
1399.31230,0.00787
1398.34793,0.00784
1397.38355,0.00781
1396.41917,0.00777
1395.45479,0.00774
1394.49041,0.00771
1393.52604,0.00768
1392.56166,0.00764
1391.59728,0.00761
1390.63290,0.00760
1389.66853,0.00760
1388.70415,0.00760
1387.73977,0.00762
1386.77539,0.00763
1385.81101,0.00764
1384.84664,0.00763
1383.88226,0.00763
1382.91788,0.00762
1381.95350,0.00759
1380.98912,0.00755
1380.02475,0.00751
1379.06037,0.00748
1378.09599,0.00746
1377.13161,0.00744
1376.16724,0.00741
1375.20286,0.00739
1374.23848,0.00739
1373.27410,0.00739
1372.30972,0.00738
1371.34535,0.00737
1370.38097,0.00736
1369.41659,0.00735
1368.45221,0.00735
1367.48783,0.00736
1366.52346,0.00737
1365.55908,0.00736
1364.59470,0.00735
1363.63032,0.00735
1362.66594,0.00735
1361.70157,0.00734
1360.73719,0.00732
1359.77281,0.00731
1358.80843,0.00730
1357.84406,0.00728
1356.87968,0.00727
1355.91530,0.00726
1354.95092,0.00724
1353.98654,0.00723
1353.02217,0.00722
1352.05779,0.00722
1351.09341,0.00722
1350.12903,0.00721
1349.16465,0.00720
1348.20028,0.00719
1347.23590,0.00717
1346.27152,0.00716
1345.30714,0.00715
1344.34276,0.00714
1343.37839,0.00713
1342.41401,0.00713
1341.44963,0.00712
1340.48525,0.00711
1339.52088,0.00708
1338.55650,0.00706
1337.59212,0.00704
1336.62774,0.00703
1335.66336,0.00702
1334.69899,0.00702
1333.73461,0.00704
1332.77023,0.00707
1331.80585,0.00710
1330.84147,0.00712
1329.87710,0.00715
1328.91272,0.00718
1327.94834,0.00720
1326.98396,0.00721
1326.01959,0.00720
1325.05521,0.00716
1324.09083,0.00713
1323.12645,0.00711
1322.16207,0.00709
1321.19770,0.00708
1320.23332,0.00706
1319.26894,0.00704
1318.30456,0.00705
1317.34018,0.00706
1316.37581,0.00707
1315.41143,0.00708
1314.44705,0.00707
1313.48267,0.00707
1312.51829,0.00707
1311.55392,0.00708
1310.58954,0.00709
1309.62516,0.00709
1308.66078,0.00708
1307.69641,0.00708
1306.73203,0.00708
1305.76765,0.00709
1304.80327,0.00711
1303.83889,0.00711
1302.87452,0.00711
1301.91014,0.00711
1300.94576,0.00711
1299.98138,0.00711
1299.01700,0.00714
1298.05263,0.00716
1297.08825,0.00718
1296.12387,0.00720
1295.15949,0.00721
1294.19512,0.00722
1293.23074,0.00725
1292.26636,0.00725
1291.30198,0.00725
1290.33760,0.00725
1289.37323,0.00726
1288.40885,0.00728
1287.44447,0.00732
1286.48009,0.00735
1285.51571,0.00737
1284.55134,0.00738
1283.58696,0.00739
1282.62258,0.00739
1281.65820,0.00739
1280.69382,0.00738
1279.72945,0.00737
1278.76507,0.00737
1277.80069,0.00738
1276.83631,0.00739
1275.87194,0.00740
1274.90756,0.00742
1273.94318,0.00742
1272.97880,0.00741
1272.01442,0.00738
1271.05005,0.00735
1270.08567,0.00732
1269.12129,0.00730
1268.15691,0.00727
1267.19253,0.00725
1266.22816,0.00723
1265.26378,0.00723
1264.29940,0.00723
1263.33502,0.00726
1262.37065,0.00730
1261.40627,0.00734
1260.44189,0.00739
1259.47751,0.00746
1258.51313,0.00754
1257.54876,0.00762
1256.58438,0.00769
1255.62000,0.00774
1254.65562,0.00779
1253.69124,0.00784
1252.72687,0.00789
1251.76249,0.00795
1250.79811,0.00800
1249.83373,0.00803
1248.86935,0.00806
1247.90498,0.00810
1246.94060,0.00815
1245.97622,0.00821
1245.01184,0.00826
1244.04747,0.00831
1243.08309,0.00837
1242.11871,0.00843
1241.15433,0.00851
1240.18995,0.00861
1239.22558,0.00871
1238.26120,0.00881
1237.29682,0.00893
1236.33244,0.00908
1235.36806,0.00925
1234.40369,0.00944
1233.43931,0.00966
1232.47493,0.00990
1231.51055,0.01016
1230.54618,0.01047
1229.58180,0.01082
1228.61742,0.01122
1227.65304,0.01168
1226.68866,0.01219
1225.72429,0.01276
1224.75991,0.01337
1223.79553,0.01402
1222.83115,0.01471
1221.86677,0.01543
1220.90240,0.01615
1219.93802,0.01688
1218.97364,0.01758
1218.00926,0.01826
1217.04488,0.01893
1216.08051,0.01961
1215.11613,0.02027
1214.15175,0.02091
1213.18737,0.02153
1212.22300,0.02213
1211.25862,0.02273
1210.29424,0.02331
1209.32986,0.02388
1208.36548,0.02444
1207.40111,0.02498
1206.43673,0.02550
1205.47235,0.02603
1204.50797,0.02656
1203.54359,0.02709
1202.57922,0.02762
1201.61484,0.02814
1200.65046,0.02866
1199.68608,0.02920
1198.72171,0.02975
1197.75733,0.03031
1196.79295,0.03089
1195.82857,0.03146
1194.86419,0.03204
1193.89982,0.03264
1192.93544,0.03326
1191.97106,0.03389
1191.00668,0.03452
1190.04230,0.03516
1189.07793,0.03582
1188.11355,0.03649
1187.14917,0.03719
1186.18479,0.03791
1185.22041,0.03866
1184.25604,0.03944
1183.29166,0.04027
1182.32728,0.04114
1181.36290,0.04204
1180.39853,0.04298
1179.43415,0.04394
1178.46977,0.04492
1177.50539,0.04589
1176.54101,0.04688
1175.57664,0.04788
1174.61226,0.04891
1173.64788,0.04995
1172.68350,0.05101
1171.71912,0.05207
1170.75475,0.05312
1169.79037,0.05419
1168.82599,0.05526
1167.86161,0.05635
1166.89724,0.05744
1165.93286,0.05854
1164.96848,0.05966
1164.00410,0.06080
1163.03972,0.06196
1162.07535,0.06316
1161.11097,0.06441
1160.14659,0.06569
1159.18221,0.06698
1158.21783,0.06829
1157.25346,0.06966
1156.28908,0.07109
1155.32470,0.07256
1154.36032,0.07405
1153.39594,0.07558
1152.43157,0.07714
1151.46719,0.07873
1150.50281,0.08037
1149.53843,0.08206
1148.57406,0.08373
1147.60968,0.08539
1146.64530,0.08704
1145.68092,0.08867
1144.71654,0.09025
1143.75217,0.09173
1142.78779,0.09311
1141.82341,0.09435
1140.85903,0.09543
1139.89465,0.09635
1138.93028,0.09715
1137.96590,0.09783
1137.00152,0.09841
1136.03714,0.09892
1135.07276,0.09939
1134.10839,0.09984
1133.14401,0.10030
1132.17963,0.10076
1131.21525,0.10121
1130.25088,0.10164
1129.28650,0.10204
1128.32212,0.10242
1127.35774,0.10276
1126.39336,0.10309
1125.42899,0.10341
1124.46461,0.10371
1123.50023,0.10399
1122.53585,0.10426
1121.57147,0.10453
1120.60710,0.10479
1119.64272,0.10505
1118.67834,0.10532
1117.71396,0.10556
1116.74959,0.10577
1115.78521,0.10595
1114.82083,0.10613
1113.85645,0.10631
1112.89207,0.10650
1111.92770,0.10671
1110.96332,0.10695
1109.99894,0.10722
1109.03456,0.10752
1108.07018,0.10784
1107.10581,0.10816
1106.14143,0.10845
1105.17705,0.10875
1104.21267,0.10906
1103.24829,0.10938
1102.28392,0.10973
1101.31954,0.11012
1100.35516,0.11052
1099.39078,0.11095
1098.42641,0.11139
1097.46203,0.11186
1096.49765,0.11232
1095.53327,0.11276
1094.56889,0.11319
1093.60452,0.11364
1092.64014,0.11408
1091.67576,0.11447
1090.71138,0.11483
1089.74700,0.11516
1088.78263,0.11544
1087.81825,0.11565
1086.85387,0.11582
1085.88949,0.11597
1084.92512,0.11605
1083.96074,0.11604
1082.99636,0.11601
1082.03198,0.11595
1081.06760,0.11583
1080.10323,0.11567
1079.13885,0.11551
1078.17447,0.11535
1077.21009,0.11517
1076.24571,0.11497
1075.28134,0.11476
1074.31696,0.11455
1073.35258,0.11430
1072.38820,0.11402
1071.42382,0.11372
1070.45945,0.11339
1069.49507,0.11302
1068.53069,0.11263
1067.56631,0.11222
1066.60194,0.11178
1065.63756,0.11132
1064.67318,0.11084
1063.70880,0.11032
1062.74442,0.10978
1061.78005,0.10923
1060.81567,0.10867
1059.85129,0.10809
1058.88691,0.10745
1057.92253,0.10676
1056.95816,0.10604
1055.99378,0.10532
1055.02940,0.10459
1054.06502,0.10385
1053.10065,0.10305
1052.13627,0.10223
1051.17189,0.10140
1050.20751,0.10059
1049.24313,0.09978
1048.27876,0.09897
1047.31438,0.09813
1046.35000,0.09725
1045.38562,0.09636
1044.42124,0.09548
1043.45687,0.09458
1042.49249,0.09359
1041.52811,0.09254
1040.56373,0.09148
1039.59935,0.09038
1038.63498,0.08923
1037.67060,0.08806
1036.70622,0.08686
1035.74184,0.08561
1034.77747,0.08428
1033.81309,0.08287
1032.84871,0.08137
1031.88433,0.07977
1030.91995,0.07806
1029.95558,0.07628
1028.99120,0.07451
1028.02682,0.07282
1027.06244,0.07136
1026.09806,0.07038
1025.13369,0.07009
1024.16931,0.07068
1023.20493,0.07220
1022.24055,0.07456
1021.27618,0.07752
1020.31180,0.08079
1019.34742,0.08401
1018.38304,0.08681
1017.41866,0.08892
1016.45429,0.09021
1015.48991,0.09066
1014.52553,0.09040
1013.56115,0.08961
1012.59677,0.08851
1011.63240,0.08729
1010.66802,0.08601
1009.70364,0.08472
1008.73926,0.08348
1007.77488,0.08230
1006.81051,0.08115
1005.84613,0.08004
1004.88175,0.07899
1003.91737,0.07800
1002.95300,0.07703
1001.98862,0.07609
1001.02424,0.07520
1000.05986,0.07436
999.09548,0.07354
998.13111,0.07274
997.16673,0.07195
996.20235,0.07118
995.23797,0.07041
994.27359,0.06963
993.30922,0.06885
992.34484,0.06809
991.38046,0.06732
990.41608,0.06654
989.45171,0.06574
988.48733,0.06497
987.52295,0.06423
986.55857,0.06352
985.59419,0.06283
984.62982,0.06216
983.66544,0.06151
982.70106,0.06087
981.73668,0.06023
980.77230,0.05963
979.80793,0.05903
978.84355,0.05841
977.87917,0.05778
976.91479,0.05718
975.95041,0.05660
974.98604,0.05604
974.02166,0.05549
973.05728,0.05495
972.09290,0.05442
971.12853,0.05387
970.16415,0.05334
969.19977,0.05283
968.23539,0.05234
967.27101,0.05186
966.30664,0.05141
965.34226,0.05097
964.37788,0.05055
963.41350,0.05015
962.44912,0.04977
961.48475,0.04940
960.52037,0.04900
959.55599,0.04858
958.59161,0.04818
957.62724,0.04780
956.66286,0.04743
955.69848,0.04707
954.73410,0.04673
953.76972,0.04641
952.80535,0.04613
951.84097,0.04584
950.87659,0.04556
949.91221,0.04526
948.94783,0.04493
947.98346,0.04459
947.01908,0.04432
946.05470,0.04410
945.09032,0.04388
944.12594,0.04368
943.16157,0.04351
942.19719,0.04336
941.23281,0.04323
940.26843,0.04312
939.30406,0.04301
938.33968,0.04288
937.37530,0.04272
936.41092,0.04261
935.44654,0.04255
934.48217,0.04247
933.51779,0.04239
932.55341,0.04233
931.58903,0.04231
930.62465,0.04232
929.66028,0.04237
928.69590,0.04245
927.73152,0.04254
926.76714,0.04263
925.80276,0.04272
924.83839,0.04280
923.87401,0.04288
922.90963,0.04300
921.94525,0.04314
920.98088,0.04329
920.01650,0.04346
919.05212,0.04363
918.08774,0.04384
917.12336,0.04405
916.15899,0.04425
915.19461,0.04448
914.23023,0.04471
913.26585,0.04490
912.30147,0.04510
911.33710,0.04530
910.37272,0.04550
909.40834,0.04566
908.44396,0.04581
907.47959,0.04598
906.51521,0.04613
905.55083,0.04623
904.58645,0.04635
903.62207,0.04652
902.65770,0.04667
901.69332,0.04677
900.72894,0.04686
899.76456,0.04700
898.80018,0.04716
897.83581,0.04728
896.87143,0.04739
895.90705,0.04753
894.94267,0.04766
893.97829,0.04783
893.01392,0.04806
892.04954,0.04831
891.08516,0.04858
890.12078,0.04888
889.15641,0.04918
888.19203,0.04952
887.22765,0.04982
886.26327,0.05003
885.29889,0.05019
884.33452,0.05034
883.37014,0.05051
882.40576,0.05068
881.44138,0.05083
880.47700,0.05098
879.51263,0.05114
878.54825,0.05129
877.58387,0.05145
876.61949,0.05165
875.65512,0.05183
874.69074,0.05197
873.72636,0.05209
872.76198,0.05223
871.79760,0.05242
870.83323,0.05263
869.86885,0.05284
868.90447,0.05305
867.94009,0.05327
866.97571,0.05349
866.01134,0.05375
865.04696,0.05404
864.08258,0.05433
863.11820,0.05464
862.15382,0.05499
861.18945,0.05538
860.22507,0.05584
859.26069,0.05631
858.29631,0.05681
857.33194,0.05733
856.36756,0.05786
855.40318,0.05841
854.43880,0.05897
853.47442,0.05959
852.51005,0.06024
851.54567,0.06091
850.58129,0.06161
849.61691,0.06234
848.65253,0.06310
847.68816,0.06390
846.72378,0.06474
845.75940,0.06558
844.79502,0.06645
843.83065,0.06730
842.86627,0.06814
841.90189,0.06901
840.93751,0.06989
839.97313,0.07077
839.00876,0.07168
838.04438,0.07260
837.08000,0.07352
836.11562,0.07444
835.15124,0.07536
834.18687,0.07628
833.22249,0.07721
832.25811,0.07814
831.29373,0.07907
830.32935,0.08001
829.36498,0.08096
828.40060,0.08189
827.43622,0.08278
826.47184,0.08359
825.50747,0.08433
824.54309,0.08506
823.57871,0.08579
822.61433,0.08651
821.64995,0.08721
820.68558,0.08788
819.72120,0.08856
818.75682,0.08922
817.79244,0.08979
816.82806,0.09026
815.86369,0.09065
814.89931,0.09100
813.93493,0.09136
812.97055,0.09169
812.00618,0.09199
811.04180,0.09227
810.07742,0.09253
809.11304,0.09277
808.14866,0.09301
807.18429,0.09318
806.21991,0.09323
805.25553,0.09326
804.29115,0.09330
803.32677,0.09333
802.36240,0.09330
801.39802,0.09326
800.43364,0.09321
799.46926,0.09318
798.50488,0.09313
797.54051,0.09302
796.57613,0.09285
795.61175,0.09264
794.64737,0.09239
793.68300,0.09208
792.71862,0.09173
791.75424,0.09134
790.78986,0.09093
789.82548,0.09055
788.86111,0.09014
787.89673,0.08968
786.93235,0.08919
785.96797,0.08869
785.00359,0.08821
784.03922,0.08772
783.07484,0.08718
782.11046,0.08663
781.14608,0.08612
780.18171,0.08566
779.21733,0.08522
778.25295,0.08476
777.28857,0.08423
776.32419,0.08363
775.35982,0.08297
774.39544,0.08229
773.43106,0.08159
772.46668,0.08082
771.50230,0.08005
770.53793,0.07935
769.57355,0.07871
768.60917,0.07809
767.64479,0.07747
766.68041,0.07687
765.71604,0.07625
764.75166,0.07562
763.78728,0.07497
762.82290,0.07433
761.85853,0.07368
760.89415,0.07300
759.92977,0.07238
758.96539,0.07179
758.00101,0.07118
757.03664,0.07052
756.07226,0.06984
755.10788,0.06918
754.14350,0.06853
753.17912,0.06788
752.21475,0.06727
751.25037,0.06668
750.28599,0.06612
749.32161,0.06561
748.35724,0.06513
747.39286,0.06460
746.42848,0.06403
745.46410,0.06348
744.49972,0.06294
743.53535,0.06240
742.57097,0.06183
741.60659,0.06126
740.64221,0.06075
739.67783,0.06024
738.71346,0.05974
737.74908,0.05927
736.78470,0.05874
735.82032,0.05818
734.85594,0.05765
733.89157,0.05716
732.92719,0.05666
731.96281,0.05613
730.99843,0.05560
730.03406,0.05509
729.06968,0.05463
728.10530,0.05417
727.14092,0.05371
726.17654,0.05324
725.21217,0.05271
724.24779,0.05216
723.28341,0.05159
722.31903,0.05103
721.35465,0.05048
720.39028,0.04993
719.42590,0.04937
718.46152,0.04884
717.49714,0.04837
716.53276,0.04789
715.56839,0.04740
714.60401,0.04691
713.63963,0.04640
712.67525,0.04592
711.71088,0.04544
710.74650,0.04497
709.78212,0.04450
708.81774,0.04401
707.85336,0.04352
706.88899,0.04307
705.92461,0.04262
704.96023,0.04213
703.99585,0.04162
703.03147,0.04114
702.06710,0.04065
701.10272,0.04021
700.13834,0.03977
699.17396,0.03927
698.20959,0.03879
697.24521,0.03834
696.28083,0.03795
695.31645,0.03757
694.35207,0.03718
693.38770,0.03677
692.42332,0.03636
691.45894,0.03598
690.49456,0.03559
689.53018,0.03520
688.56581,0.03478
687.60143,0.03436
686.63705,0.03395
685.67267,0.03355
684.70829,0.03315
683.74392,0.03274
682.77954,0.03234
681.81516,0.03196
680.85078,0.03159
679.88641,0.03123
678.92203,0.03084
677.95765,0.03045
676.99327,0.03008
676.02889,0.02973
675.06452,0.02942
674.10014,0.02913
673.13576,0.02884
672.17138,0.02860
671.20700,0.02844
670.24263,0.02831
669.27825,0.02820
668.31387,0.02819
667.34949,0.02827
666.38512,0.02847
665.42074,0.02884
664.45636,0.02950
663.49198,0.03062
662.52760,0.03233
661.56323,0.03479
660.59885,0.03819
659.63447,0.04248
658.67009,0.04748
657.70571,0.05306
656.74134,0.05897
655.77696,0.06484
654.81258,0.07023
653.84820,0.07482
652.88382,0.07846
651.91945,0.08102
650.95507,0.08251
649.99069,0.08307
649.02631,0.08279
648.06194,0.08175
647.09756,0.08010
646.13318,0.07795
645.16880,0.07540
644.20442,0.07255
643.24005,0.06947
642.27567,0.06631
641.31129,0.06324
640.34691,0.06034
639.38253,0.05781
638.41816,0.05590
637.45378,0.05474
636.48940,0.05447
635.52502,0.05517
634.56065,0.05685
633.59627,0.05942
632.63189,0.06281
631.66751,0.06687
630.70313,0.07138
629.73876,0.07617
628.77438,0.08118
627.81000,0.08587
626.84562,0.08910
625.88124,0.09129
624.91687,0.09244
623.95249,0.09201
622.98811,0.09037
622.02373,0.08751
621.05935,0.08372
620.09498,0.07896
619.13060,0.07409
618.16622,0.06980
617.20184,0.06559
616.23747,0.06173
615.27309,0.05802
614.30871,0.05563
613.34433,0.05500
612.37995,0.05591
611.41558,0.05893
610.45120,0.06372
609.48682,0.07003
608.52244,0.07724
607.55806,0.08535
606.59369,0.09273
605.62931,0.09792
604.66493,0.10156
603.70055,0.10320
602.73618,0.10307
601.77180,0.10171
600.80742,0.09921
599.84304,0.09603
598.87866,0.09253
597.91429,0.08921
596.94991,0.08635
595.98553,0.08394
595.02115,0.08135
594.05677,0.07881
593.09240,0.07675
592.12802,0.07510
591.16364,0.07382
590.19926,0.07270
589.23488,0.07171
588.27051,0.07077
587.30613,0.06987
586.34175,0.06922
585.37737,0.06878
584.41300,0.06843
583.44862,0.06813
582.48424,0.06785
581.51986,0.06759
580.55548,0.06739
579.59111,0.06721
578.62673,0.06697
577.66235,0.06677
576.69797,0.06666
575.73359,0.06668
574.76922,0.06685
573.80484,0.06710
572.84046,0.06735
571.87608,0.06761
570.91171,0.06792
569.94733,0.06833
568.98295,0.06885
568.01857,0.06936
567.05419,0.06980
566.08982,0.07027
565.12544,0.07082
564.16106,0.07143
563.19668,0.07205
562.23230,0.07265
561.26793,0.07324
560.30355,0.07396
559.33917,0.07497
558.37479,0.07601
557.41041,0.07692
556.44604,0.07783
555.48166,0.07882
554.51728,0.07990
553.55290,0.08104
552.58853,0.08216
551.62415,0.08321
550.65977,0.08424
549.69539,0.08535
548.73101,0.08668
547.76664,0.08810
546.80226,0.08932
545.83788,0.09049
544.87350,0.09182
543.90912,0.09320
542.94475,0.09452
541.98037,0.09579
541.01599,0.09691
540.05161,0.09799
539.08724,0.09902
538.12286,0.10001
537.15848,0.10109
536.19410,0.10219
535.22972,0.10330
534.26535,0.10449
533.30097,0.10566
532.33659,0.10670
531.37221,0.10768
530.40783,0.10861
529.44346,0.10942
528.47908,0.11020
527.51470,0.11102
526.55032,0.11191
525.58594,0.11291
524.62157,0.11394
523.65719,0.11491
522.69281,0.11581
521.72843,0.11659
520.76406,0.11726
519.79968,0.11796
518.83530,0.11871
517.87092,0.11947
516.90654,0.12032
515.94217,0.12134
514.97779,0.12248
514.01341,0.12359
513.04903,0.12458
512.08465,0.12562
511.12028,0.12669
510.15590,0.12780
509.19152,0.12895
508.22714,0.13002
507.26276,0.13105
506.29839,0.13203
505.33401,0.13297
504.36963,0.13383
503.40525,0.13455
502.44088,0.13499
501.47650,0.13520
500.51212,0.13541
499.54774,0.13558
498.58336,0.13570
497.61899,0.13568
496.65461,0.13539
495.69023,0.13503
494.72585,0.13464
493.76147,0.13419
492.79710,0.13360
491.83272,0.13279
490.86834,0.13179
489.90396,0.13071
488.93959,0.12980
487.97521,0.12895
487.01083,0.12805
486.04645,0.12716
485.08207,0.12626
484.11770,0.12544
483.15332,0.12465
482.18894,0.12379
481.22456,0.12292
480.26018,0.12204
479.29581,0.12121
478.33143,0.12051
477.36705,0.11993
476.40267,0.11933
475.43829,0.11873
474.47392,0.11822
473.50954,0.11769
472.54516,0.11711
471.58078,0.11638
470.61641,0.11557
469.65203,0.11482
468.68765,0.11404
467.72327,0.11318
466.75889,0.11225
465.79452,0.11130
464.83014,0.11034
463.86576,0.10944
462.90138,0.10850
461.93700,0.10741
460.97263,0.10623
460.00825,0.10501
459.04387,0.10378
458.07949,0.10253
457.11512,0.10124
456.15074,0.09994
455.18636,0.09862
454.22198,0.09736
453.25760,0.09621
452.29323,0.09514
451.32885,0.09406
450.36447,0.09291
449.40009,0.09174
448.43571,0.09053
447.47134,0.08928
446.50696,0.08801
445.54258,0.08669
444.57820,0.08535
443.61382,0.08402
442.64945,0.08278
441.68507,0.08165
440.72069,0.08058
439.75631,0.07956
438.79194,0.07859
437.82756,0.07763
436.86318,0.07680
435.89880,0.07615
434.93442,0.07556
433.97005,0.07508
433.00567,0.07475
432.04129,0.07454
431.07691,0.07431
430.11253,0.07393
429.14816,0.07341
428.18378,0.07271
427.21940,0.07174
426.25502,0.07049
425.29065,0.06908
424.32627,0.06759
423.36189,0.06602
422.39751,0.06459
421.43313,0.06334
420.46876,0.06220
419.50438,0.06114
418.54000,0.06016
417.57562,0.05928
416.61124,0.05842
415.64687,0.05753
414.68249,0.05660
413.71811,0.05566
412.75373,0.05474
411.78935,0.05382
410.82498,0.05302
409.86060,0.05235
408.89622,0.05166
407.93184,0.05098
406.96747,0.05036
406.00309,0.04974
405.03871,0.04910
404.07433,0.04910
403.10995,0.04910
402.14558,0.04910
401.18120,0.04910
400.21682,0.04910
399.25244,0.04910
