1900.76660,0.00106
1899.80223,0.00103
1898.83787,0.00099
1897.87350,0.00096
1896.90913,0.00092
1895.94477,0.00089
1894.98040,0.00086
1894.01603,0.00082
1893.05167,0.00079
1892.08730,0.00075
1891.12293,0.00072
1890.15857,0.00069
1889.19420,0.00065
1888.22983,0.00062
1887.26547,0.00058
1886.30110,0.00055
1885.33673,0.00052
1884.37237,0.00048
1883.40800,0.00045
1882.44364,0.00041
1881.47927,0.00038
1880.51490,0.00033
1879.55054,0.00030
1878.58617,0.00044
1877.62180,0.00054
1876.65744,0.00036
1875.69307,0.00008
1874.72870,0.00010
1873.76434,0.00043
1872.79997,0.00063
1871.83560,0.00050
1870.87124,0.00024
1869.90687,0.00024
1868.94250,0.00041
1867.97814,0.00049
1867.01377,0.00058
1866.04940,0.00073
1865.08504,0.00067
1864.12067,0.00040
1863.15630,0.00039
1862.19194,0.00061
1861.22757,0.00075
1860.26320,0.00074
1859.29884,0.00072
1858.33447,0.00085
1857.37010,0.00107
1856.40574,0.00130
1855.44137,0.00143
1854.47700,0.00145
1853.51264,0.00151
1852.54827,0.00178
1851.58390,0.00211
1850.61954,0.00216
1849.65517,0.00205
1848.69080,0.00212
1847.72644,0.00246
1846.76207,0.00272
1845.79770,0.00274
1844.83334,0.00291
1843.86897,0.00325
1842.90460,0.00358
1841.94024,0.00380
1840.97587,0.00411
1840.01150,0.00447
1839.04714,0.00477
1838.08277,0.00504
1837.11840,0.00533
1836.15404,0.00568
1835.18967,0.00607
1834.22530,0.00642
1833.26094,0.00675
1832.29657,0.00701
1831.33220,0.00702
1830.36784,0.00693
1829.40347,0.00712
1828.43910,0.00759
1827.47474,0.00801
1826.51037,0.00821
1825.54600,0.00848
1824.58164,0.00886
1823.61727,0.00923
1822.65290,0.00941
1821.68854,0.00943
1820.72417,0.00954
1819.75981,0.00977
1818.79544,0.00998
1817.83107,0.01005
1816.86671,0.01013
1815.90234,0.01028
1814.93797,0.01041
1813.97361,0.01067
1813.00924,0.01098
1812.04487,0.01118
1811.08051,0.01119
1810.11614,0.01126
1809.15177,0.01145
1808.18741,0.01158
1807.22304,0.01167
1806.25867,0.01178
1805.29431,0.01199
1804.32994,0.01225
1803.36557,0.01246
1802.40121,0.01253
1801.43684,0.01257
1800.47247,0.01284
1799.50811,0.01321
1798.54374,0.01351
1797.57937,0.01363
1796.61501,0.01384
1795.65064,0.01419
1794.68627,0.01445
1793.72191,0.01470
1792.75754,0.01508
1791.79317,0.01562
1790.82881,0.01608
1789.86444,0.01649
1788.90007,0.01687
1787.93571,0.01728
1786.97134,0.01780
1786.00697,0.01836
1785.04261,0.01899
1784.07824,0.01965
1783.11387,0.02031
1782.14951,0.02089
1781.18514,0.02150
1780.22077,0.02221
1779.25641,0.02291
1778.29204,0.02362
1777.32767,0.02430
1776.36331,0.02512
1775.39894,0.02596
1774.43457,0.02661
1773.47021,0.02723
1772.50584,0.02815
1771.54147,0.02943
1770.57711,0.03044
1769.61274,0.03119
1768.64837,0.03209
1767.68401,0.03322
1766.71964,0.03429
1765.75527,0.03512
1764.79091,0.03600
1763.82654,0.03679
1762.86217,0.03762
1761.89781,0.03870
1760.93344,0.03995
1759.96907,0.04105
1759.00471,0.04179
1758.04034,0.04250
1757.07597,0.04330
1756.11161,0.04427
1755.14724,0.04516
1754.18288,0.04599
1753.21851,0.04678
1752.25414,0.04742
1751.28978,0.04814
1750.32541,0.04883
1749.36104,0.04955
1748.39668,0.05027
1747.43231,0.05112
1746.46794,0.05192
1745.50358,0.05251
1744.53921,0.05300
1743.57484,0.05343
1742.61048,0.05401
1741.64611,0.05454
1740.68174,0.05488
1739.71738,0.05511
1738.75301,0.05529
1737.78864,0.05559
1736.82428,0.05583
1735.85991,0.05585
1734.89554,0.05564
1733.93118,0.05563
1732.96681,0.05583
1732.00244,0.05586
1731.03808,0.05570
1730.07371,0.05551
1729.10934,0.05538
1728.14498,0.05513
1727.18061,0.05486
1726.21624,0.05463
1725.25188,0.05427
1724.28751,0.05380
1723.32314,0.05337
1722.35878,0.05305
1721.39441,0.05260
1720.43004,0.05195
1719.46568,0.05110
1718.50131,0.05004
1717.53694,0.04928
1716.57258,0.04883
1715.60821,0.04841
1714.64384,0.04779
1713.67948,0.04728
1712.71511,0.04679
1711.75074,0.04612
1710.78638,0.04541
1709.82201,0.04471
1708.85764,0.04400
1707.89328,0.04314
1706.92891,0.04224
1705.96454,0.04143
1705.00018,0.04066
1704.03581,0.03993
1703.07144,0.03918
1702.10708,0.03836
1701.14271,0.03714
1700.17834,0.03622
1699.21398,0.03571
1698.24961,0.03529
1697.28524,0.03442
1696.32088,0.03357
1695.35651,0.03296
1694.39214,0.03246
1693.42778,0.03193
1692.46341,0.03130
1691.49905,0.03065
1690.53468,0.02997
1689.57031,0.02922
1688.60595,0.02854
1687.64158,0.02798
1686.67721,0.02753
1685.71285,0.02692
1684.74848,0.02613
1683.78411,0.02556
1682.81975,0.02532
1681.85538,0.02507
1680.89101,0.02455
1679.92665,0.02409
1678.96228,0.02375
1677.99791,0.02345
1677.03355,0.02306
1676.06918,0.02268
1675.10481,0.02245
1674.14045,0.02231
1673.17608,0.02211
1672.21171,0.02178
1671.24735,0.02154
1670.28298,0.02127
1669.31861,0.02115
1668.35425,0.02118
1667.38988,0.02127
1666.42551,0.02131
1665.46115,0.02128
1664.49678,0.02124
1663.53241,0.02117
1662.56805,0.02130
1661.60368,0.02155
1660.63931,0.02178
1659.67495,0.02195
1658.71058,0.02210
1657.74621,0.02236
1656.78185,0.02256
1655.81748,0.02270
1654.85311,0.02270
1653.88875,0.02249
1652.92438,0.02280
1651.96001,0.02352
1650.99565,0.02444
1650.03128,0.02483
1649.06691,0.02514
1648.10255,0.02538
1647.13818,0.02578
1646.17381,0.02654
1645.20945,0.02742
1644.24508,0.02832
1643.28071,0.02904
1642.31635,0.02985
1641.35198,0.03063
1640.38761,0.03146
1639.42325,0.03232
1638.45888,0.03312
1637.49451,0.03393
1636.53015,0.03466
1635.56578,0.03578
1634.60141,0.03705
1633.63705,0.03837
1632.67268,0.03949
1631.70831,0.04058
1630.74395,0.04168
1629.77958,0.04271
1628.81522,0.04382
1627.85085,0.04489
1626.88648,0.04599
1625.92212,0.04703
1624.95775,0.04794
1623.99338,0.04882
1623.02902,0.04972
1622.06465,0.05069
1621.10028,0.05152
1620.13592,0.05223
1619.17155,0.05277
1618.20718,0.05319
1617.24282,0.05360
1616.27845,0.05410
1615.31408,0.05469
1614.34972,0.05519
1613.38535,0.05555
1612.42098,0.05576
1611.45662,0.05596
1610.49225,0.05614
1609.52788,0.05630
1608.56352,0.05648
1607.59915,0.05671
1606.63478,0.05697
1605.67042,0.05720
1604.70605,0.05737
1603.74168,0.05748
1602.77732,0.05766
1601.81295,0.05787
1600.84858,0.05803
1599.88422,0.05815
1598.91985,0.05831
1597.95548,0.05853
1596.99112,0.05869
1596.02675,0.05882
1595.06238,0.05895
1594.09802,0.05912
1593.13365,0.05923
1592.16928,0.05923
1591.20492,0.05917
1590.24055,0.05912
1589.27618,0.05914
1588.31182,0.05909
1587.34745,0.05900
1586.38308,0.05883
1585.41872,0.05860
1584.45435,0.05833
1583.48998,0.05801
1582.52562,0.05765
1581.56125,0.05723
1580.59688,0.05686
1579.63252,0.05632
1578.66815,0.05564
1577.70378,0.05486
1576.73942,0.05389
1575.77505,0.05307
1574.81068,0.05241
1573.84632,0.05191
1572.88195,0.05110
1571.91758,0.05028
1570.95322,0.04937
1569.98885,0.04820
1569.02448,0.04714
1568.06012,0.04630
1567.09575,0.04564
1566.13139,0.04470
1565.16702,0.04361
1564.20265,0.04247
1563.23829,0.04143
1562.27392,0.04059
1561.30955,0.03940
1560.34519,0.03795
1559.38082,0.03632
1558.41645,0.03516
1557.45209,0.03452
1556.48772,0.03411
1555.52335,0.03344
1554.55899,0.03230
1553.59462,0.03132
1552.63025,0.03051
1551.66589,0.02978
1550.70152,0.02883
1549.73715,0.02780
1548.77279,0.02691
1547.80842,0.02608
1546.84405,0.02529
1545.87969,0.02424
1544.91532,0.02325
1543.95095,0.02240
1542.98659,0.02155
1542.02222,0.02063
1541.05785,0.01955
1540.09349,0.01871
1539.12912,0.01802
1538.16475,0.01770
1537.20039,0.01730
1536.23602,0.01675
1535.27165,0.01612
1534.30729,0.01529
1533.34292,0.01462
1532.37855,0.01408
1531.41419,0.01377
1530.44982,0.01328
1529.48545,0.01266
1528.52109,0.01206
1527.55672,0.01155
1526.59235,0.01117
1525.62799,0.01065
1524.66362,0.01026
1523.69925,0.00990
1522.73489,0.00943
1521.77052,0.00901
1520.80615,0.00880
1519.84179,0.00890
1518.87742,0.00880
1517.91305,0.00854
1516.94869,0.00832
1515.98432,0.00836
1515.01995,0.00859
1514.05559,0.00867
1513.09122,0.00878
1512.12685,0.00889
1511.16249,0.00905
1510.19812,0.00909
1509.23375,0.00905
1508.26939,0.00910
1507.30502,0.00910
1506.34065,0.00956
1505.37629,0.01027
1504.41192,0.01105
1503.44756,0.01151
1502.48319,0.01199
1501.51882,0.01248
1500.55446,0.01283
1499.59009,0.01323
1498.62572,0.01369
1497.66136,0.01420
1496.69699,0.01470
1495.73262,0.01535
1494.76826,0.01610
1493.80389,0.01671
1492.83952,0.01724
1491.87516,0.01760
1490.91079,0.01792
1489.94642,0.01833
1488.98206,0.01890
1488.01769,0.01948
1487.05332,0.02001
1486.08896,0.02060
1485.12459,0.02116
1484.16022,0.02167
1483.19586,0.02203
1482.23149,0.02239
1481.26712,0.02284
1480.30276,0.02332
1479.33839,0.02379
1478.37402,0.02416
1477.40966,0.02452
1476.44529,0.02490
1475.48092,0.02541
1474.51656,0.02584
1473.55219,0.02609
1472.58782,0.02655
1471.62346,0.02730
1470.65909,0.02815
1469.69472,0.02883
1468.73036,0.02954
1467.76599,0.03025
1466.80162,0.03087
1465.83726,0.03149
1464.87289,0.03223
1463.90852,0.03313
1462.94416,0.03398
1461.97979,0.03485
1461.01542,0.03572
1460.05106,0.03652
1459.08669,0.03728
1458.12232,0.03805
1457.15796,0.03913
1456.19359,0.04036
1455.22922,0.04168
1454.26486,0.04286
1453.30049,0.04403
1452.33612,0.04524
1451.37176,0.04647
1450.40739,0.04768
1449.44302,0.04871
1448.47866,0.04980
1447.51429,0.05100
1446.54992,0.05230
1445.58556,0.05359
1444.62119,0.05477
1443.65682,0.05596
1442.69246,0.05709
1441.72809,0.05823
1440.76373,0.05934
1439.79936,0.06042
1438.83499,0.06144
1437.87063,0.06228
1436.90626,0.06320
1435.94189,0.06422
1434.97753,0.06532
1434.01316,0.06622
1433.04879,0.06706
1432.08443,0.06792
1431.12006,0.06862
1430.15569,0.06922
1429.19133,0.06978
1428.22696,0.07049
1427.26259,0.07116
1426.29823,0.07175
1425.33386,0.07222
1424.36949,0.07247
1423.40513,0.07275
1422.44076,0.07309
1421.47639,0.07345
1420.51203,0.07352
1419.54766,0.07347
1418.58329,0.07356
1417.61893,0.07376
1416.65456,0.07395
1415.69019,0.07401
1414.72583,0.07406
1413.76146,0.07403
1412.79709,0.07397
1411.83273,0.07390
1410.86836,0.07379
1409.90399,0.07375
1408.93963,0.07368
1407.97526,0.07363
1407.01089,0.07351
1406.04653,0.07328
1405.08216,0.07312
1404.11779,0.07313
1403.15343,0.07328
1402.18906,0.07328
1401.22469,0.07321
1400.26033,0.07310
1399.29596,0.07303
1398.33159,0.07309
1397.36723,0.07320
1396.40286,0.07320
1395.43849,0.07296
1394.47413,0.07282
1393.50976,0.07296
1392.54539,0.07328
1391.58103,0.07351
1390.61666,0.07365
1389.65229,0.07380
1388.68793,0.07385
1387.72356,0.07385
1386.75919,0.07399
1385.79483,0.07431
1384.83046,0.07463
1383.86609,0.07490
1382.90173,0.07513
1381.93736,0.07532
1380.97299,0.07553
1380.00863,0.07581
1379.04426,0.07610
1378.07989,0.07632
1377.11553,0.07655
1376.15116,0.07680
1375.18680,0.07699
1374.22243,0.07717
1373.25806,0.07750
1372.29370,0.07799
1371.32933,0.07847
1370.36496,0.07880
1369.40060,0.07901
1368.43623,0.07930
1367.47186,0.07969
1366.50750,0.08009
1365.54313,0.08043
1364.57876,0.08069
1363.61440,0.08093
1362.65003,0.08121
1361.68566,0.08157
1360.72130,0.08194
1359.75693,0.08233
1358.79256,0.08274
1357.82820,0.08306
1356.86383,0.08333
1355.89946,0.08364
1354.93510,0.08400
1353.97073,0.08435
1353.00636,0.08470
1352.04200,0.08506
1351.07763,0.08540
1350.11326,0.08574
1349.14890,0.08611
1348.18453,0.08647
1347.22016,0.08677
1346.25580,0.08710
1345.29143,0.08748
1344.32706,0.08783
1343.36270,0.08820
1342.39833,0.08860
1341.43396,0.08892
1340.46960,0.08911
1339.50523,0.08939
1338.54086,0.08984
1337.57650,0.09030
1336.61213,0.09072
1335.64776,0.09112
1334.68340,0.09156
1333.71903,0.09195
1332.75466,0.09230
1331.79030,0.09266
1330.82593,0.09310
1329.86156,0.09358
1328.89720,0.09396
1327.93283,0.09435
1326.96846,0.09479
1326.00410,0.09527
1325.03973,0.09569
1324.07536,0.09610
1323.11100,0.09657
1322.14663,0.09707
1321.18226,0.09758
1320.21790,0.09804
1319.25353,0.09853
1318.28916,0.09903
1317.32480,0.09954
1316.36043,0.10009
1315.39606,0.10065
1314.43170,0.10116
1313.46733,0.10160
1312.50297,0.10211
1311.53860,0.10269
1310.57423,0.10329
1309.60987,0.10388
1308.64550,0.10439
1307.68113,0.10485
1306.71677,0.10533
1305.75240,0.10590
1304.78803,0.10647
1303.82367,0.10697
1302.85930,0.10744
1301.89493,0.10793
1300.93057,0.10844
1299.96620,0.10889
1299.00183,0.10934
1298.03747,0.10978
1297.07310,0.11026
1296.10873,0.11079
1295.14437,0.11128
1294.18000,0.11168
1293.21563,0.11208
1292.25127,0.11256
1291.28690,0.11306
1290.32253,0.11354
1289.35817,0.11393
1288.39380,0.11425
1287.42943,0.11458
1286.46507,0.11492
1285.50070,0.11528
1284.53633,0.11562
1283.57197,0.11599
1282.60760,0.11631
1281.64323,0.11659
1280.67887,0.11688
1279.71450,0.11724
1278.75013,0.11759
1277.78577,0.11783
1276.82140,0.11805
1275.85703,0.11831
1274.89267,0.11858
1273.92830,0.11880
1272.96393,0.11895
1271.99957,0.11913
1271.03520,0.11939
1270.07083,0.11969
1269.10647,0.11992
1268.14210,0.12014
1267.17773,0.12033
1266.21337,0.12049
1265.24900,0.12069
1264.28463,0.12093
1263.32027,0.12120
1262.35590,0.12144
1261.39153,0.12167
1260.42717,0.12190
1259.46280,0.12218
1258.49843,0.12249
1257.53407,0.12277
1256.56970,0.12308
1255.60533,0.12341
1254.64097,0.12374
1253.67660,0.12406
1252.71223,0.12445
1251.74787,0.12488
1250.78350,0.12528
1249.81914,0.12568
1248.85477,0.12614
1247.89040,0.12665
1246.92604,0.12714
1245.96167,0.12769
1244.99730,0.12832
1244.03294,0.12890
1243.06857,0.12935
1242.10420,0.12979
1241.13984,0.13042
1240.17547,0.13120
1239.21110,0.13195
1238.24674,0.13261
1237.28237,0.13327
1236.31800,0.13396
1235.35364,0.13462
1234.38927,0.13530
1233.42490,0.13598
1232.46054,0.13664
1231.49617,0.13727
1230.53180,0.13790
1229.56744,0.13859
1228.60307,0.13924
1227.63870,0.13981
1226.67434,0.14031
1225.70997,0.14080
1224.74560,0.14124
1223.78124,0.14165
1222.81687,0.14205
1221.85250,0.14234
1220.88814,0.14250
1219.92377,0.14260
1218.95940,0.14273
1217.99504,0.14282
1217.03067,0.14290
1216.06630,0.14304
1215.10194,0.14320
1214.13757,0.14329
1213.17320,0.14329
1212.20884,0.14323
1211.24447,0.14317
1210.28010,0.14317
1209.31574,0.14313
1208.35137,0.14309
1207.38700,0.14310
1206.42264,0.14317
1205.45827,0.14325
1204.49390,0.14328
1203.52954,0.14332
1202.56517,0.14336
1201.60080,0.14337
1200.63644,0.14337
1199.67207,0.14346
1198.70770,0.14365
1197.74334,0.14382
1196.77897,0.14397
1195.81460,0.14412
1194.85024,0.14428
1193.88587,0.14447
1192.92150,0.14470
1191.95714,0.14498
1190.99277,0.14524
1190.02840,0.14548
1189.06404,0.14573
1188.09967,0.14599
1187.13531,0.14620
1186.17094,0.14634
1185.20657,0.14654
1184.24221,0.14684
1183.27784,0.14714
1182.31347,0.14736
1181.34911,0.14755
1180.38474,0.14774
1179.42037,0.14792
1178.45601,0.14805
1177.49164,0.14817
1176.52727,0.14833
1175.56291,0.14844
1174.59854,0.14842
1173.63417,0.14831
1172.66981,0.14830
1171.70544,0.14832
1170.74107,0.14821
1169.77671,0.14797
1168.81234,0.14767
1167.84797,0.14741
1166.88361,0.14717
1165.91924,0.14697
1164.95487,0.14669
1163.99051,0.14625
1163.02614,0.14574
1162.06177,0.14528
1161.09741,0.14491
1160.13304,0.14441
1159.16867,0.14373
1158.20431,0.14303
1157.23994,0.14245
1156.27557,0.14189
1155.31121,0.14120
1154.34684,0.14051
1153.38247,0.13990
1152.41811,0.13930
1151.45374,0.13863
1150.48937,0.13794
1149.52501,0.13730
1148.56064,0.13669
1147.59627,0.13610
1146.63191,0.13549
1145.66754,0.13484
1144.70317,0.13416
1143.73881,0.13354
1142.77444,0.13298
1141.81007,0.13241
1140.84571,0.13186
1139.88134,0.13137
1138.91697,0.13092
1137.95261,0.13044
1136.98824,0.12994
1136.02387,0.12950
1135.05951,0.12914
1134.09514,0.12878
1133.13077,0.12845
1132.16641,0.12828
1131.20204,0.12813
1130.23767,0.12778
1129.27331,0.12740
1128.30894,0.12719
1127.34457,0.12704
1126.38021,0.12687
1125.41584,0.12672
1124.45148,0.12658
1123.48711,0.12637
1122.52274,0.12617
1121.55838,0.12606
1120.59401,0.12603
1119.62964,0.12606
1118.66528,0.12607
1117.70091,0.12599
1116.73654,0.12589
1115.77218,0.12579
1114.80781,0.12568
1113.84344,0.12564
1112.87908,0.12581
1111.91471,0.12603
1110.95034,0.12612
1109.98598,0.12615
1109.02161,0.12622
1108.05724,0.12632
1107.09288,0.12643
1106.12851,0.12666
1105.16414,0.12698
1104.19978,0.12720
1103.23541,0.12728
1102.27104,0.12736
1101.30668,0.12759
1100.34231,0.12787
1099.37794,0.12813
1098.41358,0.12842
1097.44921,0.12884
1096.48484,0.12935
1095.52048,0.12970
1094.55611,0.12987
1093.59174,0.13006
1092.62738,0.13042
1091.66301,0.13078
1090.69864,0.13104
1089.73428,0.13136
1088.76991,0.13178
1087.80554,0.13222
1086.84118,0.13257
1085.87681,0.13288
1084.91244,0.13323
1083.94808,0.13361
1082.98371,0.13400
1082.01934,0.13437
1081.05498,0.13471
1080.09061,0.13504
1079.12624,0.13553
1078.16188,0.13629
1077.19751,0.13707
1076.23314,0.13762
1075.26878,0.13810
1074.30441,0.13881
1073.34004,0.13974
1072.37568,0.14064
1071.41131,0.14152
1070.44694,0.14253
1069.48258,0.14364
1068.51821,0.14473
1067.55384,0.14578
1066.58948,0.14689
1065.62511,0.14821
1064.66074,0.14971
1063.69638,0.15131
1062.73201,0.15287
1061.76765,0.15423
1060.80328,0.15551
1059.83891,0.15689
1058.87455,0.15827
1057.91018,0.15943
1056.94581,0.16048
1055.98145,0.16148
1055.01708,0.16226
1054.05271,0.16278
1053.08835,0.16310
1052.12398,0.16322
1051.15961,0.16301
1050.19525,0.16248
1049.23088,0.16183
1048.26651,0.16113
1047.30215,0.16020
1046.33778,0.15887
1045.37341,0.15731
1044.40905,0.15579
1043.44468,0.15418
1042.48031,0.15228
1041.51595,0.15023
1040.55158,0.14818
1039.58721,0.14613
1038.62285,0.14397
1037.65848,0.14171
1036.69411,0.13948
1035.72975,0.13737
1034.76538,0.13529
1033.80101,0.13299
1032.83665,0.13051
1031.87228,0.12806
1030.90791,0.12579
1029.94355,0.12359
1028.97918,0.12127
1028.01481,0.11887
1027.05045,0.11652
1026.08608,0.11433
1025.12171,0.11229
1024.15735,0.11024
1023.19298,0.10816
1022.22861,0.10612
1021.26425,0.10422
1020.29988,0.10239
1019.33551,0.10054
1018.37115,0.09875
1017.40678,0.09716
1016.44241,0.09573
1015.47805,0.09430
1014.51368,0.09285
1013.54931,0.09151
1012.58495,0.09039
1011.62058,0.08934
1010.65621,0.08825
1009.69185,0.08721
1008.72748,0.08630
1007.76311,0.08548
1006.79875,0.08466
1005.83438,0.08393
1004.87001,0.08330
1003.90565,0.08266
1002.94128,0.08197
1001.97691,0.08133
1001.01255,0.08078
1000.04818,0.08026
999.08382,0.07984
998.11945,0.07948
997.15508,0.07906
996.19072,0.07859
995.22635,0.07819
994.26198,0.07784
993.29762,0.07745
992.33325,0.07696
991.36888,0.07642
990.40452,0.07591
989.44015,0.07545
988.47578,0.07496
987.51142,0.07445
986.54705,0.07396
985.58268,0.07348
984.61832,0.07299
983.65395,0.07245
982.68958,0.07192
981.72522,0.07132
980.76085,0.07066
979.79648,0.07006
978.83212,0.06957
977.86775,0.06905
976.90338,0.06838
975.93902,0.06767
974.97465,0.06695
974.01028,0.06619
973.04592,0.06542
972.08155,0.06465
971.11718,0.06389
970.15282,0.06317
969.18845,0.06251
968.22408,0.06179
967.25972,0.06102
966.29535,0.06027
965.33098,0.05951
964.36662,0.05877
963.40225,0.05804
962.43788,0.05728
961.47352,0.05651
960.50915,0.05582
959.54478,0.05509
958.58042,0.05426
957.61605,0.05346
956.65168,0.05269
955.68732,0.05187
954.72295,0.05104
953.75858,0.05033
952.79422,0.04970
951.82985,0.04912
950.86548,0.04850
949.90112,0.04773
948.93675,0.04691
947.97238,0.04619
947.00802,0.04553
946.04365,0.04483
945.07928,0.04413
944.11492,0.04345
943.15055,0.04279
942.18618,0.04217
941.22182,0.04158
940.25745,0.04097
939.29308,0.04029
938.32872,0.03960
937.36435,0.03900
936.39998,0.03854
935.43562,0.03809
934.47125,0.03755
933.50689,0.03694
932.54252,0.03635
931.57815,0.03582
930.61379,0.03530
929.64942,0.03470
928.68505,0.03411
927.72069,0.03362
926.75632,0.03315
925.79195,0.03267
924.82759,0.03226
923.86322,0.03197
922.89885,0.03167
921.93449,0.03125
920.97012,0.03073
920.00575,0.03031
919.04139,0.03011
918.07702,0.02998
917.11265,0.02977
916.14829,0.02951
915.18392,0.02935
914.21955,0.02930
913.25519,0.02922
912.29082,0.02906
911.32645,0.02892
910.36209,0.02884
909.39772,0.02882
908.43335,0.02888
907.46899,0.02896
906.50462,0.02902
905.54025,0.02908
904.57589,0.02922
903.61152,0.02943
902.64715,0.02968
901.68279,0.02993
900.71842,0.03019
899.75405,0.03039
898.78969,0.03046
897.82532,0.03059
896.86095,0.03090
895.89659,0.03124
894.93222,0.03151
893.96785,0.03181
893.00349,0.03218
892.03912,0.03252
891.07475,0.03286
890.11039,0.03323
889.14602,0.03359
888.18165,0.03397
887.21729,0.03439
886.25292,0.03484
885.28855,0.03524
884.32419,0.03556
883.35982,0.03586
882.39545,0.03614
881.43109,0.03637
880.46672,0.03654
879.50235,0.03669
878.53799,0.03687
877.57362,0.03709
876.60925,0.03733
875.64489,0.03748
874.68052,0.03754
873.71615,0.03763
872.75179,0.03785
871.78742,0.03815
870.82306,0.03831
869.85869,0.03825
868.89432,0.03817
867.92996,0.03830
866.96559,0.03849
866.00122,0.03851
865.03686,0.03836
864.07249,0.03808
863.10812,0.03781
862.14376,0.03772
861.17939,0.03776
860.21502,0.03769
859.25066,0.03736
858.28629,0.03696
857.32192,0.03671
856.35756,0.03657
855.39319,0.03630
854.42882,0.03586
853.46446,0.03544
852.50009,0.03514
851.53572,0.03487
850.57136,0.03451
849.60699,0.03410
848.64262,0.03369
847.67826,0.03326
846.71389,0.03286
845.74952,0.03246
844.78516,0.03201
843.82079,0.03145
842.85642,0.03085
841.89206,0.03035
840.92769,0.02995
839.96332,0.02948
838.99896,0.02888
838.03459,0.02833
837.07022,0.02791
836.10586,0.02748
835.14149,0.02694
834.17712,0.02636
833.21276,0.02588
832.24839,0.02538
831.28402,0.02478
830.31966,0.02425
829.35529,0.02378
828.39092,0.02326
827.42656,0.02271
826.46219,0.02225
825.49782,0.02177
824.53346,0.02120
823.56909,0.02065
822.60472,0.02022
821.64036,0.01993
820.67599,0.01965
819.71162,0.01917
818.74726,0.01851
817.78289,0.01791
816.81852,0.01756
815.85416,0.01731
814.88979,0.01692
813.92542,0.01645
812.96106,0.01605
811.99669,0.01577
811.03232,0.01552
810.06796,0.01522
809.10359,0.01484
808.13923,0.01443
807.17486,0.01408
806.21049,0.01387
805.24613,0.01370
804.28176,0.01344
803.31739,0.01312
802.35303,0.01279
801.38866,0.01247
800.42429,0.01218
799.45993,0.01196
798.49556,0.01180
797.53119,0.01169
796.56683,0.01159
795.60246,0.01140
794.63809,0.01119
793.67373,0.01097
792.70936,0.01070
791.74499,0.01043
790.78063,0.01031
789.81626,0.01032
788.85189,0.01027
787.88753,0.01001
786.92316,0.00965
785.95879,0.00945
784.99443,0.00938
784.03006,0.00926
783.06569,0.00916
782.10133,0.00922
781.13696,0.00933
780.17259,0.00936
779.20823,0.00930
778.24386,0.00921
777.27949,0.00920
776.31513,0.00921
775.35076,0.00905
774.38639,0.00883
773.42203,0.00877
772.45766,0.00881
771.49329,0.00881
770.52893,0.00876
769.56456,0.00881
768.60019,0.00882
767.63583,0.00865
766.67146,0.00851
765.70709,0.00855
764.74273,0.00866
763.77836,0.00869
762.81399,0.00864
761.84963,0.00857
760.88526,0.00857
759.92089,0.00865
758.95653,0.00865
757.99216,0.00853
757.02779,0.00850
756.06343,0.00865
755.09906,0.00883
754.13469,0.00883
753.17033,0.00873
752.20596,0.00867
751.24159,0.00872
750.27723,0.00892
749.31286,0.00920
748.34849,0.00936
747.38413,0.00936
746.41976,0.00942
745.45540,0.00955
744.49103,0.00957
743.52666,0.00952
742.56230,0.00955
741.59793,0.00970
740.63356,0.00988
739.66920,0.00993
738.70483,0.00984
737.74046,0.00975
736.77610,0.00983
735.81173,0.01005
734.84736,0.01025
733.88300,0.01032
732.91863,0.01037
731.95426,0.01052
730.98990,0.01070
730.02553,0.01086
729.06116,0.01101
728.09680,0.01107
727.13243,0.01106
726.16806,0.01115
725.20370,0.01134
724.23933,0.01143
723.27496,0.01144
722.31060,0.01154
721.34623,0.01178
720.38186,0.01203
719.41750,0.01213
718.45313,0.01215
717.48876,0.01225
716.52440,0.01248
715.56003,0.01276
714.59566,0.01296
713.63130,0.01293
712.66693,0.01284
711.70256,0.01295
710.73820,0.01315
709.77383,0.01323
708.80946,0.01323
707.84510,0.01329
706.88073,0.01347
705.91636,0.01375
704.95200,0.01402
703.98763,0.01414
703.02326,0.01413
702.05890,0.01410
701.09453,0.01418
700.13016,0.01437
699.16580,0.01458
698.20143,0.01467
697.23706,0.01461
696.27270,0.01457
695.30833,0.01465
694.34396,0.01480
693.37960,0.01496
692.41523,0.01506
691.45086,0.01512
690.48650,0.01521
689.52213,0.01528
688.55776,0.01539
687.59340,0.01564
686.62903,0.01590
685.66466,0.01590
684.70030,0.01577
683.73593,0.01583
682.77157,0.01604
681.80720,0.01616
680.84283,0.01616
679.87847,0.01617
678.91410,0.01627
677.94973,0.01655
676.98537,0.01697
676.02100,0.01724
675.05663,0.01721
674.09227,0.01716
673.12790,0.01737
672.16353,0.01777
671.19917,0.01805
670.23480,0.01796
669.27043,0.01737
668.30607,0.01723
667.34170,0.01779
666.37733,0.01860
665.41297,0.01895
664.44860,0.01918
663.48423,0.01928
662.51987,0.01932
661.55550,0.01940
660.59113,0.01952
659.62677,0.01961
658.66240,0.01966
657.69803,0.01976
656.73367,0.01992
655.76930,0.02015
654.80493,0.02030
653.84057,0.02031
652.87620,0.02035
651.91183,0.02054
650.94747,0.02081
649.98310,0.02097
649.01873,0.02109
648.05437,0.02119
647.09000,0.02128
646.12563,0.02147
645.16127,0.02174
644.19690,0.02195
643.23253,0.02206
642.26817,0.02227
641.30380,0.02261
640.33943,0.02296
639.37507,0.02319
638.41070,0.02328
637.44633,0.02339
636.48197,0.02358
635.51760,0.02378
634.55323,0.02400
633.58887,0.02431
632.62450,0.02470
631.66013,0.02483
630.69577,0.02480
629.73140,0.02496
628.76703,0.02541
627.80267,0.02582
626.83830,0.02602
625.87393,0.02612
624.90957,0.02623
623.94520,0.02649
622.98083,0.02689
622.01647,0.02727
621.05210,0.02758
620.08774,0.02784
619.12337,0.02828
618.15900,0.02887
617.19464,0.02939
616.23027,0.02973
615.26590,0.03014
614.30154,0.03083
613.33717,0.03154
612.37280,0.03210
611.40844,0.03253
610.44407,0.03293
609.47970,0.03338
608.51534,0.03396
607.55097,0.03466
606.58660,0.03532
605.62224,0.03602
604.65787,0.03679
603.69350,0.03761
602.72914,0.03834
601.76477,0.03897
600.80040,0.03971
599.83604,0.04066
598.87167,0.04154
597.90730,0.04217
596.94294,0.04280
595.97857,0.04353
595.01420,0.04430
594.04984,0.04502
593.08547,0.04563
592.12110,0.04630
591.15674,0.04718
590.19237,0.04805
589.22800,0.04872
588.26364,0.04936
587.29927,0.05002
586.33490,0.05056
585.37054,0.05085
584.40617,0.05096
583.44180,0.05109
582.47744,0.05125
581.51307,0.05128
580.54870,0.05108
579.58434,0.05070
578.61997,0.05028
577.65560,0.04983
576.69124,0.04914
575.72687,0.04822
574.76250,0.04733
573.79814,0.04639
572.83377,0.04514
571.86940,0.04381
570.90504,0.04260
569.94067,0.04137
568.97630,0.04022
568.01194,0.03927
567.04757,0.03817
566.08320,0.03682
565.11884,0.03570
564.15447,0.03497
563.19010,0.03423
562.22574,0.03328
561.26137,0.03241
560.29700,0.03194
559.33264,0.03168
558.36827,0.03123
557.40390,0.03055
556.43954,0.02989
555.47517,0.02929
554.51081,0.02863
553.54644,0.02788
552.58207,0.02735
551.61771,0.02739
550.65334,0.02752
549.68897,0.02710
548.72461,0.02641
547.76024,0.02614
546.79587,0.02637
545.83151,0.02640
544.86714,0.02584
543.90277,0.02522
542.93841,0.02518
541.97404,0.02539
541.00967,0.02516
540.04531,0.02467
539.08094,0.02431
538.11657,0.02420
537.15221,0.02419
536.18784,0.02403
535.22347,0.02368
534.25911,0.02326
533.29474,0.02304
532.33037,0.02295
531.36601,0.02279
530.40164,0.02272
529.43727,0.02282
528.47291,0.02274
527.50854,0.02204
526.54417,0.02122
525.57981,0.02104
524.61544,0.02146
523.65107,0.02182
522.68671,0.02177
521.72234,0.02150
520.75797,0.02122
519.79361,0.02103
518.82924,0.02090
517.86487,0.02063
516.90051,0.02031
515.93614,0.02034
514.97177,0.02068
514.00741,0.02090
513.04304,0.02102
512.07867,0.02106
511.11431,0.02066
510.14994,0.02017
509.18557,0.02017
508.22121,0.02037
507.25684,0.02013
506.29247,0.01978
505.32811,0.01973
504.36374,0.01962
503.39937,0.01911
502.43501,0.01890
501.47064,0.01936
500.50627,0.01954
499.54191,0.01892
498.57754,0.01860
497.61317,0.01890
496.64881,0.01908
495.68444,0.01883
494.72007,0.01842
493.75571,0.01787
492.79134,0.01741
491.82698,0.01744
490.86261,0.01760
489.89824,0.01768
488.93388,0.01754
487.96951,0.01728
487.00514,0.01748
486.04078,0.01794
485.07641,0.01802
484.11204,0.01746
483.14768,0.01691
482.18331,0.01664
481.21894,0.01650
480.25458,0.01707
479.29021,0.01775
478.32584,0.01719
477.36148,0.01564
476.39711,0.01523
475.43274,0.01653
474.46838,0.01730
473.50401,0.01698
472.53964,0.01659
471.57528,0.01647
470.61091,0.01654
469.64654,0.01656
468.68218,0.01645
467.71781,0.01606
466.75344,0.01622
465.78908,0.01703
464.82471,0.01733
463.86034,0.01656
462.89598,0.01542
461.93161,0.01595
460.96724,0.01752
460.00288,0.01782
459.03851,0.01653
458.07414,0.01528
457.10978,0.01542
456.14541,0.01604
455.18104,0.01631
454.21668,0.01635
453.25231,0.01686
452.28794,0.01756
451.32358,0.01699
450.35921,0.01587
449.39484,0.01543
448.43048,0.01527
447.46611,0.01489
446.50174,0.01458
445.53738,0.01482
444.57301,0.01492
443.60864,0.01461
442.64428,0.01449
441.67991,0.01481
440.71554,0.01504
439.75118,0.01461
438.78681,0.01430
437.82244,0.01453
436.85808,0.01503
435.89371,0.01532
434.92934,0.01495
433.96498,0.01394
433.00061,0.01303
432.03624,0.01284
431.07188,0.01294
430.10751,0.01273
429.14315,0.01206
428.17878,0.01164
427.21441,0.01185
426.25005,0.01148
425.28568,0.01019
424.32131,0.00933
423.35695,0.00962
422.39258,0.01003
421.42821,0.00968
420.46385,0.00912
419.49948,0.00998
418.53511,0.01089
417.57075,0.01024
416.60638,0.00890
415.64201,0.00847
414.67765,0.00749
413.71328,0.00607
412.74891,0.00546
411.78455,0.00526
410.82018,0.00446
409.85581,0.00416
408.89145,0.00460
407.92708,0.00410
406.96271,0.00305
405.99835,0.00358
405.03398,0.00570
404.06961,0.00692
403.10525,0.00669
402.14088,0.00572
401.17651,0.00381
400.21215,0.00381
399.24778,0.00381
