1900.76660,0.01156
1899.80223,0.01146
1898.83787,0.01137
1897.87350,0.01127
1896.90913,0.01118
1895.94477,0.01108
1894.98040,0.01098
1894.01603,0.01089
1893.05167,0.01079
1892.08730,0.01070
1891.12293,0.01060
1890.15857,0.01050
1889.19420,0.01041
1888.22983,0.01031
1887.26547,0.01022
1886.30110,0.01012
1885.33673,0.01003
1884.37237,0.00993
1883.40800,0.00983
1882.44364,0.00974
1881.47927,0.00964
1880.51490,0.00955
1879.55054,0.00945
1878.58617,0.00935
1877.62180,0.00926
1876.65744,0.00916
1875.69307,0.00907
1874.72870,0.00897
1873.76434,0.00887
1872.79997,0.00878
1871.83560,0.00868
1870.87124,0.00859
1869.90687,0.00849
1868.94250,0.00839
1867.97814,0.00830
1867.01377,0.00820
1866.04940,0.00811
1865.08504,0.00801
1864.12067,0.00792
1863.15630,0.00782
1862.19194,0.00772
1861.22757,0.00763
1860.26320,0.00753
1859.29884,0.00744
1858.33447,0.00734
1857.37010,0.00746
1856.40574,0.00750
1855.44137,0.00756
1854.47700,0.00770
1853.51264,0.00785
1852.54827,0.00793
1851.58390,0.00804
1850.61954,0.00820
1849.65517,0.00846
1848.69080,0.00866
1847.72644,0.00877
1846.76207,0.00903
1845.79770,0.00916
1844.83334,0.00838
1843.86897,0.00778
1842.90460,0.00860
1841.94024,0.01016
1840.97587,0.01097
1840.01150,0.01131
1839.04714,0.01153
1838.08277,0.01156
1837.11840,0.01164
1836.15404,0.01212
1835.18967,0.01278
1834.22530,0.01334
1833.26094,0.01361
1832.29657,0.01392
1831.33220,0.01411
1830.36784,0.01356
1829.40347,0.01317
1828.43910,0.01379
1827.47474,0.01518
1826.51037,0.01569
1825.54600,0.01534
1824.58164,0.01527
1823.61727,0.01590
1822.65290,0.01685
1821.68854,0.01732
1820.72417,0.01746
1819.75981,0.01756
1818.79544,0.01776
1817.83107,0.01797
1816.86671,0.01812
1815.90234,0.01841
1814.93797,0.01873
1813.97361,0.01897
1813.00924,0.01911
1812.04487,0.01913
1811.08051,0.01898
1810.11614,0.01892
1809.15177,0.01918
1808.18741,0.01944
1807.22304,0.01955
1806.25867,0.01964
1805.29431,0.01984
1804.32994,0.02012
1803.36557,0.02027
1802.40121,0.02019
1801.43684,0.02011
1800.47247,0.02017
1799.50811,0.02022
1798.54374,0.02050
1797.57937,0.02108
1796.61501,0.02133
1795.65064,0.02137
1794.68627,0.02185
1793.72191,0.02231
1792.75754,0.02198
1791.79317,0.02174
1790.82881,0.02227
1789.86444,0.02333
1788.90007,0.02430
1787.93571,0.02516
1786.97134,0.02594
1786.00697,0.02642
1785.04261,0.02690
1784.07824,0.02760
1783.11387,0.02874
1782.14951,0.02981
1781.18514,0.03040
1780.22077,0.03107
1779.25641,0.03214
1778.29204,0.03359
1777.32767,0.03480
1776.36331,0.03561
1775.39894,0.03650
1774.43457,0.03773
1773.47021,0.03850
1772.50584,0.03867
1771.54147,0.03970
1770.57711,0.04209
1769.61274,0.04450
1768.64837,0.04584
1767.68401,0.04689
1766.71964,0.04849
1765.75527,0.05056
1764.79091,0.05250
1763.82654,0.05413
1762.86217,0.05535
1761.89781,0.05620
1760.93344,0.05761
1759.96907,0.05981
1759.00471,0.06195
1758.04034,0.06363
1757.07597,0.06480
1756.11161,0.06622
1755.14724,0.06797
1754.18288,0.06997
1753.21851,0.07191
1752.25414,0.07298
1751.28978,0.07357
1750.32541,0.07450
1749.36104,0.07634
1748.39668,0.07792
1747.43231,0.07928
1746.46794,0.08098
1745.50358,0.08261
1744.53921,0.08389
1743.57484,0.08468
1742.61048,0.08574
1741.64611,0.08731
1740.68174,0.08831
1739.71738,0.08862
1738.75301,0.08929
1737.78864,0.09078
1736.82428,0.09210
1735.85991,0.09316
1734.89554,0.09213
1733.93118,0.09043
1732.96681,0.09040
1732.00244,0.09275
1731.03808,0.09403
1730.07371,0.09381
1729.10934,0.09362
1728.14498,0.09389
1727.18061,0.09410
1726.21624,0.09390
1725.25188,0.09361
1724.28751,0.09313
1723.32314,0.09236
1722.35878,0.09176
1721.39441,0.09126
1720.43004,0.09102
1719.46568,0.09049
1718.50131,0.08803
1717.53694,0.08544
1716.57258,0.08469
1715.60821,0.08521
1714.64384,0.08418
1713.67948,0.08298
1712.71511,0.08258
1711.75074,0.08222
1710.78638,0.08112
1709.82201,0.07973
1708.85764,0.07882
1707.89328,0.07785
1706.92891,0.07611
1705.96454,0.07397
1705.00018,0.07224
1704.03581,0.07107
1703.07144,0.07049
1702.10708,0.07129
1701.14271,0.06763
1700.17834,0.06272
1699.21398,0.06058
1698.24961,0.06333
1697.28524,0.06385
1696.32088,0.06089
1695.35651,0.05801
1694.39214,0.05744
1693.42778,0.05860
1692.46341,0.05834
1691.49905,0.05727
1690.53468,0.05590
1689.57031,0.05461
1688.60595,0.05357
1687.64158,0.05289
1686.67721,0.05297
1685.71285,0.05205
1684.74848,0.04856
1683.78411,0.04569
1682.81975,0.04629
1681.85538,0.04864
1680.89101,0.04896
1679.92665,0.04839
1678.96228,0.04802
1677.99791,0.04841
1677.03355,0.04886
1676.06918,0.04798
1675.10481,0.04661
1674.14045,0.04644
1673.17608,0.04788
1672.21171,0.04832
1671.24735,0.04812
1670.28298,0.04781
1669.31861,0.04757
1668.35425,0.04777
1667.38988,0.04896
1666.42551,0.05038
1665.46115,0.05119
1664.49678,0.05204
1663.53241,0.05230
1662.56805,0.05232
1661.60368,0.05300
1660.63931,0.05450
1659.67495,0.05590
1658.71058,0.05685
1657.74621,0.05785
1656.78185,0.05896
1655.81748,0.06031
1654.85311,0.06119
1653.88875,0.05865
1652.92438,0.05744
1651.96001,0.05985
1650.99565,0.06525
1650.03128,0.06806
1649.06691,0.06967
1648.10255,0.07049
1647.13818,0.07131
1646.17381,0.07287
1645.20945,0.07533
1644.24508,0.07836
1643.28071,0.08091
1642.31635,0.08310
1641.35198,0.08513
1640.38761,0.08734
1639.42325,0.08962
1638.45888,0.09172
1637.49451,0.09399
1636.53015,0.09549
1635.56578,0.09672
1634.60141,0.09884
1633.63705,0.10258
1632.67268,0.10626
1631.70831,0.10894
1630.74395,0.11136
1629.77958,0.11386
1628.81522,0.11606
1627.85085,0.11784
1626.88648,0.11984
1625.92212,0.12234
1624.95775,0.12463
1623.99338,0.12543
1623.02902,0.12595
1622.06465,0.12725
1621.10028,0.12915
1620.13592,0.13029
1619.17155,0.13099
1618.20718,0.13185
1617.24282,0.13059
1616.27845,0.12882
1615.31408,0.12832
1614.34972,0.12943
1613.38535,0.12940
1612.42098,0.12857
1611.45662,0.12786
1610.49225,0.12680
1609.52788,0.12558
1608.56352,0.12438
1607.59915,0.12346
1606.63478,0.12258
1605.67042,0.12171
1604.70605,0.12102
1603.74168,0.12018
1602.77732,0.11941
1601.81295,0.11864
1600.84858,0.11807
1599.88422,0.11764
1598.91985,0.11732
1597.95548,0.11699
1596.99112,0.11655
1596.02675,0.11629
1595.06238,0.11601
1594.09802,0.11589
1593.13365,0.11584
1592.16928,0.11587
1591.20492,0.11577
1590.24055,0.11558
1589.27618,0.11553
1588.31182,0.11545
1587.34745,0.11547
1586.38308,0.11533
1585.41872,0.11509
1584.45435,0.11485
1583.48998,0.11464
1582.52562,0.11438
1581.56125,0.11379
1580.59688,0.11326
1579.63252,0.11256
1578.66815,0.11208
1577.70378,0.11161
1576.73942,0.10936
1575.77505,0.10695
1574.81068,0.10594
1573.84632,0.10649
1572.88195,0.10564
1571.91758,0.10455
1570.95322,0.10335
1569.98885,0.10066
1569.02448,0.09794
1568.06012,0.09655
1567.09575,0.09645
1566.13139,0.09503
1565.16702,0.09261
1564.20265,0.09013
1563.23829,0.08835
1562.27392,0.08750
1561.30955,0.08615
1560.34519,0.08185
1559.38082,0.07561
1558.41645,0.07123
1557.45209,0.07101
1556.48772,0.07233
1555.52335,0.07244
1554.55899,0.06981
1553.59462,0.06689
1552.63025,0.06534
1551.66589,0.06466
1550.70152,0.06236
1549.73715,0.05943
1548.77279,0.05728
1547.80842,0.05609
1546.84405,0.05504
1545.87969,0.05252
1544.91532,0.04958
1543.95095,0.04748
1542.98659,0.04581
1542.02222,0.04366
1541.05785,0.04111
1540.09349,0.03816
1539.12912,0.03537
1538.16475,0.03475
1537.20039,0.03565
1536.23602,0.03551
1535.27165,0.03452
1534.30729,0.03219
1533.34292,0.02983
1532.37855,0.02831
1531.41419,0.02808
1530.44982,0.02752
1529.48545,0.02658
1528.52109,0.02522
1527.55672,0.02380
1526.59235,0.02274
1525.62799,0.02139
1524.66362,0.02037
1523.69925,0.01998
1522.73489,0.01901
1521.77052,0.01696
1520.80615,0.01520
1519.84179,0.01532
1518.87742,0.01610
1517.91305,0.01559
1516.94869,0.01413
1515.98432,0.01339
1515.01995,0.01387
1514.05559,0.01406
1513.09122,0.01370
1512.12685,0.01303
1511.16249,0.01269
1510.19812,0.01248
1509.23375,0.01204
1508.26939,0.01119
1507.30502,0.00904
1506.34065,0.00761
1505.37629,0.00828
1504.41192,0.01074
1503.44756,0.01205
1502.48319,0.01248
1501.51882,0.01263
1500.55446,0.01286
1499.59009,0.01280
1498.62572,0.01258
1497.66136,0.01286
1496.69699,0.01305
1495.73262,0.01326
1494.76826,0.01395
1493.80389,0.01511
1492.83952,0.01594
1491.87516,0.01638
1490.91079,0.01638
1489.94642,0.01626
1488.98206,0.01694
1488.01769,0.01803
1487.05332,0.01887
1486.08896,0.01986
1485.12459,0.02109
1484.16022,0.02225
1483.19586,0.02312
1482.23149,0.02401
1481.26712,0.02493
1480.30276,0.02601
1479.33839,0.02728
1478.37402,0.02849
1477.40966,0.02944
1476.44529,0.03008
1475.48092,0.03121
1474.51656,0.03269
1473.55219,0.03348
1472.58782,0.03394
1471.62346,0.03528
1470.65909,0.03777
1469.69472,0.03995
1468.73036,0.04172
1467.76599,0.04327
1466.80162,0.04485
1465.83726,0.04613
1464.87289,0.04712
1463.90852,0.04875
1462.94416,0.05085
1461.97979,0.05298
1461.01542,0.05477
1460.05106,0.05628
1459.08669,0.05759
1458.12232,0.05823
1457.15796,0.05922
1456.19359,0.06093
1455.22922,0.06378
1454.26486,0.06659
1453.30049,0.06894
1452.33612,0.07096
1451.37176,0.07288
1450.40739,0.07507
1449.44302,0.07711
1448.47866,0.07884
1447.51429,0.08046
1446.54992,0.08245
1445.58556,0.08474
1444.62119,0.08683
1443.65682,0.08890
1442.69246,0.09081
1441.72809,0.09278
1440.76373,0.09478
1439.79936,0.09685
1438.83499,0.09908
1437.87063,0.10064
1436.90626,0.10159
1435.94189,0.10295
1434.97753,0.10558
1434.01316,0.10820
1433.04879,0.11019
1432.08443,0.11217
1431.12006,0.11403
1430.15569,0.11559
1429.19133,0.11719
1428.22696,0.11930
1427.26259,0.12137
1426.29823,0.12330
1425.33386,0.12500
1424.36949,0.12632
1423.40513,0.12772
1422.44076,0.12951
1421.47639,0.13181
1420.51203,0.13328
1419.54766,0.13373
1418.58329,0.13452
1417.61893,0.13638
1416.65456,0.13863
1415.69019,0.14029
1414.72583,0.14203
1413.76146,0.14362
1412.79709,0.14493
1411.83273,0.14612
1410.86836,0.14731
1409.90399,0.14860
1408.93963,0.14982
1407.97526,0.15116
1407.01089,0.15245
1406.04653,0.15338
1405.08216,0.15396
1404.11779,0.15486
1403.15343,0.15627
1402.18906,0.15762
1401.22469,0.15890
1400.26033,0.15973
1399.29596,0.16008
1398.33159,0.16056
1397.36723,0.16180
1396.40286,0.16318
1395.43849,0.16359
1394.47413,0.16373
1393.50976,0.16443
1392.54539,0.16586
1391.58103,0.16702
1390.61666,0.16784
1389.65229,0.16882
1388.68793,0.16967
1387.72356,0.16984
1386.75919,0.16987
1385.79483,0.17058
1384.83046,0.17164
1383.86609,0.17234
1382.90173,0.17285
1381.93736,0.17341
1380.97299,0.17393
1380.00863,0.17431
1379.04426,0.17462
1378.07989,0.17494
1377.11553,0.17546
1376.15116,0.17592
1375.18680,0.17591
1374.22243,0.17556
1373.25806,0.17553
1372.29370,0.17613
1371.32933,0.17673
1370.36496,0.17704
1369.40060,0.17693
1368.43623,0.17670
1367.47186,0.17670
1366.50750,0.17687
1365.54313,0.17712
1364.57876,0.17717
1363.61440,0.17670
1362.65003,0.17597
1361.68566,0.17559
1360.72130,0.17566
1359.75693,0.17566
1358.79256,0.17550
1357.82820,0.17515
1356.86383,0.17470
1355.89946,0.17424
1354.93510,0.17371
1353.97073,0.17324
1353.00636,0.17283
1352.04200,0.17234
1351.07763,0.17177
1350.11326,0.17119
1349.14890,0.17053
1348.18453,0.16986
1347.22016,0.16923
1346.25580,0.16858
1345.29143,0.16791
1344.32706,0.16717
1343.36270,0.16638
1342.39833,0.16564
1341.43396,0.16489
1340.46960,0.16378
1339.50523,0.16250
1338.54086,0.16162
1337.57650,0.16114
1336.61213,0.16058
1335.64776,0.15977
1334.68340,0.15892
1333.71903,0.15809
1332.75466,0.15728
1331.79030,0.15650
1330.82593,0.15570
1329.86156,0.15487
1328.89720,0.15405
1327.93283,0.15332
1326.96846,0.15256
1326.00410,0.15175
1325.03973,0.15089
1324.07536,0.15008
1323.11100,0.14937
1322.14663,0.14870
1321.18226,0.14801
1320.21790,0.14722
1319.25353,0.14638
1318.28916,0.14562
1317.32480,0.14501
1316.36043,0.14448
1315.39606,0.14393
1314.43170,0.14339
1313.46733,0.14281
1312.50297,0.14219
1311.53860,0.14167
1310.57423,0.14127
1309.60987,0.14086
1308.64550,0.14040
1307.68113,0.13999
1306.71677,0.13966
1305.75240,0.13937
1304.78803,0.13909
1303.82367,0.13881
1302.85930,0.13858
1301.89493,0.13838
1300.93057,0.13814
1299.96620,0.13789
1299.00183,0.13773
1298.03747,0.13766
1297.07310,0.13762
1296.10873,0.13755
1295.14437,0.13747
1294.18000,0.13742
1293.21563,0.13742
1292.25127,0.13744
1291.28690,0.13746
1290.32253,0.13754
1289.35817,0.13769
1288.39380,0.13780
1287.42943,0.13786
1286.46507,0.13801
1285.50070,0.13825
1284.53633,0.13846
1283.57197,0.13864
1282.60760,0.13881
1281.64323,0.13902
1280.67887,0.13923
1279.71450,0.13946
1278.75013,0.13980
1277.78577,0.14013
1276.82140,0.14036
1275.85703,0.14056
1274.89267,0.14086
1273.92830,0.14120
1272.96393,0.14152
1271.99957,0.14185
1271.03520,0.14220
1270.07083,0.14257
1269.10647,0.14295
1268.14210,0.14335
1267.17773,0.14378
1266.21337,0.14428
1265.24900,0.14478
1264.28463,0.14515
1263.32027,0.14546
1262.35590,0.14587
1261.39153,0.14637
1260.42717,0.14681
1259.46280,0.14722
1258.49843,0.14773
1257.53407,0.14827
1256.56970,0.14877
1255.60533,0.14922
1254.64097,0.14974
1253.67660,0.15024
1252.71223,0.15067
1251.74787,0.15104
1250.78350,0.15143
1249.81914,0.15193
1248.85477,0.15246
1247.89040,0.15297
1246.92604,0.15341
1245.96167,0.15383
1244.99730,0.15422
1244.03294,0.15459
1243.06857,0.15488
1242.10420,0.15506
1241.13984,0.15525
1240.17547,0.15552
1239.21110,0.15581
1238.24674,0.15601
1237.28237,0.15623
1236.31800,0.15650
1235.35364,0.15661
1234.38927,0.15654
1233.42490,0.15649
1232.46054,0.15663
1231.49617,0.15678
1230.53180,0.15673
1229.56744,0.15656
1228.60307,0.15645
1227.63870,0.15638
1226.67434,0.15618
1225.70997,0.15587
1224.74560,0.15553
1223.78124,0.15510
1222.81687,0.15461
1221.85250,0.15418
1220.88814,0.15380
1219.92377,0.15320
1218.95940,0.15237
1217.99504,0.15150
1217.03067,0.15069
1216.06630,0.14989
1215.10194,0.14907
1214.13757,0.14831
1213.17320,0.14759
1212.20884,0.14684
1211.24447,0.14597
1210.28010,0.14501
1209.31574,0.14407
1208.35137,0.14322
1207.38700,0.14246
1206.42264,0.14171
1205.45827,0.14091
1204.49390,0.14006
1203.52954,0.13923
1202.56517,0.13843
1201.60080,0.13764
1200.63644,0.13692
1199.67207,0.13633
1198.70770,0.13580
1197.74334,0.13523
1196.77897,0.13463
1195.81460,0.13399
1194.85024,0.13328
1193.88587,0.13255
1192.92150,0.13190
1191.95714,0.13133
1190.99277,0.13082
1190.02840,0.13037
1189.06404,0.12989
1188.09967,0.12934
1187.13531,0.12876
1186.17094,0.12825
1185.20657,0.12791
1184.24221,0.12762
1183.27784,0.12722
1182.31347,0.12667
1181.34911,0.12616
1180.38474,0.12577
1179.42037,0.12543
1178.45601,0.12512
1177.49164,0.12486
1176.52727,0.12461
1175.56291,0.12430
1174.59854,0.12395
1173.63417,0.12373
1172.66981,0.12359
1171.70544,0.12332
1170.74107,0.12294
1169.77671,0.12269
1168.81234,0.12258
1167.84797,0.12246
1166.88361,0.12229
1165.91924,0.12217
1164.95487,0.12213
1163.99051,0.12203
1163.02614,0.12181
1162.06177,0.12158
1161.09741,0.12150
1160.13304,0.12156
1159.16867,0.12159
1158.20431,0.12159
1157.23994,0.12166
1156.27557,0.12179
1155.31121,0.12189
1154.34684,0.12195
1153.38247,0.12202
1152.41811,0.12216
1151.45374,0.12239
1150.48937,0.12271
1149.52501,0.12302
1148.56064,0.12326
1147.59627,0.12352
1146.63191,0.12384
1145.66754,0.12421
1144.70317,0.12459
1143.73881,0.12497
1142.77444,0.12529
1141.81007,0.12561
1140.84571,0.12609
1139.88134,0.12667
1138.91697,0.12734
1137.95261,0.12808
1136.98824,0.12876
1136.02387,0.12932
1135.05951,0.12986
1134.09514,0.13044
1133.13077,0.13113
1132.16641,0.13187
1131.20204,0.13259
1130.23767,0.13334
1129.27331,0.13412
1128.30894,0.13489
1127.34457,0.13567
1126.38021,0.13653
1125.41584,0.13748
1124.45148,0.13837
1123.48711,0.13918
1122.52274,0.13996
1121.55838,0.14086
1120.59401,0.14186
1119.62964,0.14290
1118.66528,0.14388
1117.70091,0.14485
1116.73654,0.14593
1115.77218,0.14707
1114.80781,0.14822
1113.84344,0.14943
1112.87908,0.15071
1111.91471,0.15203
1110.95034,0.15331
1109.98598,0.15461
1109.02161,0.15593
1108.05724,0.15725
1107.09288,0.15858
1106.12851,0.15999
1105.16414,0.16151
1104.19978,0.16320
1103.23541,0.16515
1102.27104,0.16703
1101.30668,0.16872
1100.34231,0.17051
1099.37794,0.17257
1098.41358,0.17465
1097.44921,0.17658
1096.48484,0.17857
1095.52048,0.18076
1094.55611,0.18309
1093.59174,0.18541
1092.62738,0.18769
1091.66301,0.18995
1090.69864,0.19217
1089.73428,0.19438
1088.76991,0.19660
1087.80554,0.19899
1086.84118,0.20157
1085.87681,0.20418
1084.91244,0.20668
1083.94808,0.20908
1082.98371,0.21159
1082.01934,0.21418
1081.05498,0.21675
1080.09061,0.21929
1079.12624,0.22188
1078.16188,0.22445
1077.19751,0.22691
1076.23314,0.22934
1075.26878,0.23170
1074.30441,0.23391
1073.34004,0.23597
1072.37568,0.23806
1071.41131,0.24031
1070.44694,0.24253
1069.48258,0.24451
1068.51821,0.24619
1067.55384,0.24760
1066.58948,0.24883
1065.62511,0.25009
1064.66074,0.25138
1063.69638,0.25258
1062.73201,0.25370
1061.76765,0.25469
1060.80328,0.25537
1059.83891,0.25570
1058.87455,0.25586
1057.91018,0.25586
1056.94581,0.25580
1055.98145,0.25577
1055.01708,0.25554
1054.05271,0.25483
1053.08835,0.25385
1052.12398,0.25298
1051.15961,0.25203
1050.19525,0.25070
1049.23088,0.24917
1048.26651,0.24774
1047.30215,0.24634
1046.33778,0.24473
1045.37341,0.24284
1044.40905,0.24081
1043.44468,0.23869
1042.48031,0.23644
1041.51595,0.23415
1040.55158,0.23182
1039.58721,0.22931
1038.62285,0.22656
1037.65848,0.22382
1036.69411,0.22122
1035.72975,0.21855
1034.76538,0.21575
1033.80101,0.21289
1032.83665,0.21002
1031.87228,0.20715
1030.90791,0.20431
1029.94355,0.20139
1028.97918,0.19827
1028.01481,0.19515
1027.05045,0.19215
1026.08608,0.18931
1025.12171,0.18655
1024.15735,0.18382
1023.19298,0.18103
1022.22861,0.17812
1021.26425,0.17529
1020.29988,0.17265
1019.33551,0.17019
1018.37115,0.16781
1017.40678,0.16547
1016.44241,0.16326
1015.47805,0.16117
1014.51368,0.15919
1013.54931,0.15726
1012.58495,0.15548
1011.62058,0.15395
1010.65621,0.15259
1009.69185,0.15122
1008.72748,0.14988
1007.76311,0.14877
1006.79875,0.14788
1005.83438,0.14718
1004.87001,0.14662
1003.90565,0.14607
1002.94128,0.14553
1001.97691,0.14517
1001.01255,0.14501
1000.04818,0.14471
999.08382,0.14429
998.11945,0.14401
997.15508,0.14383
996.19072,0.14364
995.22635,0.14347
994.26198,0.14331
993.29762,0.14307
992.33325,0.14280
991.36888,0.14255
990.40452,0.14224
989.44015,0.14186
988.47578,0.14147
987.51142,0.14104
986.54705,0.14055
985.58268,0.13998
984.61832,0.13932
983.65395,0.13854
982.68958,0.13763
981.72522,0.13669
980.76085,0.13578
979.79648,0.13478
978.83212,0.13368
977.86775,0.13256
976.90338,0.13137
975.93902,0.13003
974.97465,0.12865
974.01028,0.12722
973.04592,0.12564
972.08155,0.12404
971.11718,0.12253
970.15282,0.12102
969.18845,0.11939
968.22408,0.11764
967.25972,0.11584
966.29535,0.11406
965.33098,0.11227
964.36662,0.11048
963.40225,0.10868
962.43788,0.10678
961.47352,0.10475
960.50915,0.10269
959.54478,0.10072
958.58042,0.09873
957.61605,0.09676
956.65168,0.09496
955.68732,0.09326
954.72295,0.09147
953.75858,0.08950
952.79422,0.08747
951.82985,0.08548
950.86548,0.08350
949.90112,0.08154
948.93675,0.07972
947.97238,0.07803
947.00802,0.07627
946.04365,0.07447
945.07928,0.07274
944.11492,0.07100
943.15055,0.06920
942.18618,0.06735
941.22182,0.06557
940.25745,0.06391
939.29308,0.06221
938.32872,0.06039
937.36435,0.05858
936.39998,0.05686
935.43562,0.05511
934.47125,0.05333
933.50689,0.05160
932.54252,0.04992
931.57815,0.04830
930.61379,0.04665
929.64942,0.04489
928.68505,0.04312
927.72069,0.04151
926.75632,0.03999
925.79195,0.03845
924.82759,0.03689
923.86322,0.03525
922.89885,0.03361
921.93449,0.03213
920.97012,0.03075
920.00575,0.02936
919.04139,0.02788
918.07702,0.02637
917.11265,0.02491
916.14829,0.02359
915.18392,0.02234
914.21955,0.02109
913.25519,0.01994
912.29082,0.01884
911.32645,0.01771
910.36209,0.01653
909.39772,0.01530
908.43335,0.01403
907.46899,0.01288
906.50462,0.01201
905.54025,0.01124
904.57589,0.01039
903.61152,0.00953
902.64715,0.00874
901.68279,0.00798
900.71842,0.00719
899.75405,0.00644
898.78969,0.00578
897.82532,0.00523
896.86095,0.00473
895.89659,0.00421
894.93222,0.00376
893.96785,0.00337
893.00349,0.00294
892.03912,0.00244
891.07475,0.00203
890.11039,0.00184
889.14602,0.00174
888.18165,0.00155
887.21729,0.00119
886.25292,0.00080
885.28855,0.00055
884.32419,0.00047
883.35982,0.00050
882.39545,0.00053
881.43109,0.00046
880.46672,0.00034
879.50235,0.00024
878.53799,0.00018
877.57362,0.00006
876.60925,0.00002
875.64489,0.00031
874.68052,0.00073
873.71615,0.00094
872.75179,0.00095
871.78742,0.00100
870.82306,0.00115
869.85869,0.00140
868.89432,0.00178
867.92996,0.00209
866.96559,0.00233
866.00122,0.00265
865.03686,0.00306
864.07249,0.00344
863.10812,0.00374
862.14376,0.00395
861.17939,0.00414
860.21502,0.00442
859.25066,0.00483
858.28629,0.00519
857.32192,0.00542
856.35756,0.00564
855.39319,0.00599
854.42882,0.00641
853.46446,0.00682
852.50009,0.00721
851.53572,0.00753
850.57136,0.00778
849.60699,0.00800
848.64262,0.00817
847.67826,0.00836
846.71389,0.00865
845.74952,0.00895
844.78516,0.00920
843.82079,0.00945
842.85642,0.00977
841.89206,0.01007
840.92769,0.01015
839.96332,0.01004
838.99896,0.01000
838.03459,0.01017
837.07022,0.01034
836.10586,0.01039
835.14149,0.01044
834.17712,0.01055
833.21276,0.01062
832.24839,0.01063
831.28402,0.01061
830.31966,0.01057
829.35529,0.01051
828.39092,0.01044
827.42656,0.01035
826.46219,0.01028
825.49782,0.01025
824.53346,0.01019
823.56909,0.01009
822.60472,0.01002
821.64036,0.00990
820.67599,0.00964
819.71162,0.00934
818.74726,0.00920
817.78289,0.00923
816.81852,0.00927
815.85416,0.00910
814.88979,0.00879
813.92542,0.00860
812.96106,0.00851
811.99669,0.00841
811.03232,0.00828
810.06796,0.00823
809.10359,0.00817
808.13923,0.00803
807.17486,0.00792
806.21049,0.00787
805.24613,0.00774
804.28176,0.00748
803.31739,0.00734
802.35303,0.00747
801.38866,0.00755
800.42429,0.00735
799.45993,0.00707
798.49556,0.00698
797.53119,0.00699
796.56683,0.00697
795.60246,0.00702
794.63809,0.00708
793.67373,0.00695
792.70936,0.00674
791.74499,0.00668
790.78063,0.00670
789.81626,0.00666
788.85189,0.00659
787.88753,0.00657
786.92316,0.00652
785.95879,0.00650
784.99443,0.00661
784.03006,0.00677
783.06569,0.00686
782.10133,0.00691
781.13696,0.00703
780.17259,0.00712
779.20823,0.00711
778.24386,0.00712
777.27949,0.00727
776.31513,0.00756
775.35076,0.00773
774.38639,0.00763
773.42203,0.00750
772.45766,0.00763
771.49329,0.00787
770.52893,0.00799
769.56456,0.00811
768.60019,0.00835
767.63583,0.00863
766.67146,0.00885
765.70709,0.00901
764.74273,0.00914
763.77836,0.00922
762.81399,0.00935
761.84963,0.00954
760.88526,0.00963
759.92089,0.00963
758.95653,0.00972
757.99216,0.00991
757.02779,0.01005
756.06343,0.01013
755.09906,0.01028
754.13469,0.01058
753.17033,0.01085
752.20596,0.01092
751.24159,0.01097
750.27723,0.01116
749.31286,0.01146
748.34849,0.01179
747.38413,0.01214
746.41976,0.01244
745.45540,0.01261
744.49103,0.01272
743.52666,0.01284
742.56230,0.01300
741.59793,0.01318
740.63356,0.01348
739.66920,0.01388
738.70483,0.01420
737.74046,0.01440
736.77610,0.01456
735.81173,0.01482
734.84736,0.01525
733.88300,0.01574
732.91863,0.01614
731.95426,0.01643
730.98990,0.01662
730.02553,0.01677
729.06116,0.01701
728.09680,0.01741
727.13243,0.01782
726.16806,0.01810
725.20370,0.01839
724.23933,0.01886
723.27496,0.01927
722.31060,0.01945
721.34623,0.01963
720.38186,0.02005
719.41750,0.02053
718.45313,0.02089
717.48876,0.02116
716.52440,0.02133
715.56003,0.02156
714.59566,0.02203
713.63130,0.02247
712.66693,0.02264
711.70256,0.02278
710.73820,0.02312
709.77383,0.02348
708.80946,0.02377
707.84510,0.02407
706.88073,0.02437
705.91636,0.02460
704.95200,0.02480
703.98763,0.02507
703.02326,0.02540
702.05890,0.02566
701.09453,0.02594
700.13016,0.02631
699.16580,0.02661
698.20143,0.02673
697.23706,0.02686
696.27270,0.02722
695.30833,0.02758
694.34396,0.02763
693.37960,0.02759
692.41523,0.02784
691.45086,0.02826
690.48650,0.02847
689.52213,0.02838
688.55776,0.02834
687.59340,0.02859
686.62903,0.02901
685.66466,0.02942
684.70030,0.02975
683.73593,0.02997
682.77157,0.03004
681.80720,0.02997
680.84283,0.02987
679.87847,0.02986
678.91410,0.03004
677.94973,0.03041
676.98537,0.03090
676.02100,0.03128
675.05663,0.03149
674.09227,0.03174
673.12790,0.03209
672.16353,0.03248
671.19917,0.03272
670.23480,0.03248
669.27043,0.03063
668.30607,0.02938
667.34170,0.03037
666.37733,0.03279
665.41297,0.03376
664.44860,0.03375
663.48423,0.03376
662.51987,0.03402
661.55550,0.03450
660.59113,0.03502
659.62677,0.03523
658.66240,0.03522
657.69803,0.03535
656.73367,0.03556
655.76930,0.03566
654.80493,0.03575
653.84057,0.03605
652.87620,0.03646
651.91183,0.03683
650.94747,0.03700
649.98310,0.03699
649.01873,0.03707
648.05437,0.03738
647.09000,0.03774
646.12563,0.03789
645.16127,0.03799
644.19690,0.03829
643.23253,0.03875
642.26817,0.03911
641.30380,0.03919
640.33943,0.03929
639.37507,0.03970
638.41070,0.04024
637.44633,0.04050
636.48197,0.04058
635.51760,0.04090
634.55323,0.04122
633.58887,0.04125
632.62450,0.04126
631.66013,0.04148
630.69577,0.04174
629.73140,0.04192
628.76703,0.04225
627.80267,0.04258
626.83830,0.04272
625.87393,0.04283
624.90957,0.04312
623.94520,0.04357
622.98083,0.04390
622.01647,0.04404
621.05210,0.04401
620.08774,0.04400
619.12337,0.04417
618.15900,0.04442
617.19464,0.04456
616.23027,0.04464
615.26590,0.04492
614.30154,0.04528
613.33717,0.04540
612.37280,0.04533
611.40844,0.04532
610.44407,0.04545
609.47970,0.04554
608.51534,0.04556
607.55097,0.04563
606.58660,0.04570
605.62224,0.04575
604.65787,0.04582
603.69350,0.04582
602.72914,0.04562
601.76477,0.04537
600.80040,0.04517
599.83604,0.04516
598.87167,0.04528
597.90730,0.04523
596.94294,0.04505
595.97857,0.04506
595.01420,0.04532
594.04984,0.04537
593.08547,0.04516
592.12110,0.04500
591.15674,0.04492
590.19237,0.04478
589.22800,0.04464
588.26364,0.04468
587.29927,0.04474
586.33490,0.04464
585.37054,0.04440
584.40617,0.04415
583.44180,0.04406
582.47744,0.04428
581.51307,0.04476
580.54870,0.04497
579.58434,0.04480
578.61997,0.04457
577.65560,0.04447
576.69124,0.04449
575.72687,0.04457
574.76250,0.04469
573.79814,0.04475
572.83377,0.04477
571.86940,0.04475
570.90504,0.04471
569.94067,0.04475
568.97630,0.04472
568.01194,0.04462
567.04757,0.04461
566.08320,0.04478
565.11884,0.04504
564.15447,0.04508
563.19010,0.04469
562.22574,0.04418
561.26137,0.04418
560.29700,0.04460
559.33264,0.04468
558.36827,0.04424
557.40390,0.04382
556.43954,0.04367
555.47517,0.04378
554.51081,0.04405
553.54644,0.04406
552.58207,0.04387
551.61771,0.04366
550.65334,0.04329
549.68897,0.04296
548.72461,0.04310
547.76024,0.04353
546.79587,0.04359
545.83151,0.04355
544.86714,0.04347
543.90277,0.04321
542.93841,0.04311
541.97404,0.04332
541.00967,0.04373
540.04531,0.04387
539.08094,0.04356
538.11657,0.04300
537.15221,0.04247
536.18784,0.04234
535.22347,0.04258
534.25911,0.04318
533.29474,0.04363
532.33037,0.04334
531.36601,0.04260
530.40164,0.04213
529.43727,0.04248
528.47291,0.04305
527.50854,0.04305
526.54417,0.04254
525.57981,0.04235
524.61544,0.04285
523.65107,0.04324
522.68671,0.04301
521.72234,0.04247
520.75797,0.04202
519.79361,0.04201
518.82924,0.04231
517.86487,0.04216
516.90051,0.04146
515.93614,0.04129
514.97177,0.04190
514.00741,0.04217
513.04304,0.04162
512.07867,0.04109
511.11431,0.04129
510.14994,0.04180
509.18557,0.04186
508.22121,0.04141
507.25684,0.04119
506.29247,0.04134
505.32811,0.04141
504.36374,0.04088
503.39937,0.03963
502.43501,0.03889
501.47064,0.03946
500.50627,0.04047
499.54191,0.04085
498.57754,0.04124
497.61317,0.04165
496.64881,0.04109
495.68444,0.03988
494.72007,0.03914
493.75571,0.03862
492.79134,0.03806
491.82698,0.03866
490.86261,0.03994
489.89824,0.04001
488.93388,0.03914
487.96951,0.03881
487.00514,0.03936
486.04078,0.03964
485.07641,0.03912
484.11204,0.03849
483.14768,0.03860
482.18331,0.03907
481.21894,0.03852
480.25458,0.03733
479.29021,0.03627
478.32584,0.03549
477.36148,0.03493
476.39711,0.03490
475.43274,0.03602
474.46838,0.03659
473.50401,0.03533
472.53964,0.03464
471.57528,0.03530
470.61091,0.03539
469.64654,0.03450
468.68218,0.03486
467.71781,0.03586
466.75344,0.03601
465.78908,0.03531
464.82471,0.03506
463.86034,0.03591
462.89598,0.03649
461.93161,0.03571
460.96724,0.03439
460.00288,0.03412
459.03851,0.03410
458.07414,0.03283
457.10978,0.03179
456.14541,0.03237
455.18104,0.03388
454.21668,0.03428
453.25231,0.03420
452.28794,0.03415
451.32358,0.03362
450.35921,0.03308
449.39484,0.03305
448.43048,0.03252
447.46611,0.03104
446.50174,0.03058
445.53738,0.03138
444.57301,0.03150
443.60864,0.03072
442.64428,0.03012
441.67991,0.03007
440.71554,0.02992
439.75118,0.02995
438.78681,0.02995
437.82244,0.02980
436.85808,0.02934
435.89371,0.02808
434.92934,0.02745
433.96498,0.02769
433.00061,0.02733
432.03624,0.02581
431.07188,0.02443
430.10751,0.02427
429.14315,0.02416
428.17878,0.02407
427.21441,0.02443
426.25005,0.02462
425.28568,0.02327
424.32131,0.02008
423.35695,0.01870
422.39258,0.02010
421.42821,0.02022
420.46385,0.01370
419.49948,0.00697
418.53511,0.00869
417.57075,0.01571
416.60638,0.01826
415.64201,0.01573
414.67765,0.01474
413.71328,0.01469
412.74891,0.01277
411.78455,0.01102
410.82018,0.01175
409.85581,0.01298
408.89145,0.01224
407.92708,0.01151
406.96271,0.01159
405.99835,0.01103
405.03398,0.01096
404.06961,0.01227
403.10525,0.01318
402.14088,0.01049
401.17651,0.00542
400.21215,0.00542
399.24778,0.00542
