1900.76660,0.00289
1899.80223,0.00281
1898.83787,0.00260
1897.87350,0.00236
1896.90913,0.00223
1895.94477,0.00231
1894.98040,0.00256
1894.01603,0.00265
1893.05167,0.00251
1892.08730,0.00249
1891.12293,0.00266
1890.15857,0.00262
1889.19420,0.00236
1888.22983,0.00223
1887.26547,0.00231
1886.30110,0.00239
1885.33673,0.00250
1884.37237,0.00266
1883.40800,0.00272
1882.44364,0.00263
1881.47927,0.00260
1880.51490,0.00272
1879.55054,0.00275
1878.58617,0.00259
1877.62180,0.00242
1876.65744,0.00239
1875.69307,0.00246
1874.72870,0.00253
1873.76434,0.00264
1872.79997,0.00274
1871.83560,0.00272
1870.87124,0.00264
1869.90687,0.00268
1868.94250,0.00279
1867.97814,0.00273
1867.01377,0.00259
1866.04940,0.00259
1865.08504,0.00276
1864.12067,0.00290
1863.15630,0.00292
1862.19194,0.00286
1861.22757,0.00284
1860.26320,0.00286
1859.29884,0.00286
1858.33447,0.00284
1857.37010,0.00285
1856.40574,0.00292
1855.44137,0.00302
1854.47700,0.00309
1853.51264,0.00308
1852.54827,0.00300
1851.58390,0.00300
1850.61954,0.00311
1849.65517,0.00324
1848.69080,0.00334
1847.72644,0.00341
1846.76207,0.00344
1845.79770,0.00336
1844.83334,0.00330
1843.86897,0.00346
1842.90460,0.00379
1841.94024,0.00404
1840.97587,0.00409
1840.01150,0.00410
1839.04714,0.00418
1838.08277,0.00428
1837.11840,0.00434
1836.15404,0.00437
1835.18967,0.00436
1834.22530,0.00433
1833.26094,0.00437
1832.29657,0.00448
1831.33220,0.00466
1830.36784,0.00488
1829.40347,0.00510
1828.43910,0.00528
1827.47474,0.00538
1826.51037,0.00546
1825.54600,0.00554
1824.58164,0.00566
1823.61727,0.00579
1822.65290,0.00589
1821.68854,0.00599
1820.72417,0.00614
1819.75981,0.00635
1818.79544,0.00650
1817.83107,0.00657
1816.86671,0.00666
1815.90234,0.00679
1814.93797,0.00688
1813.97361,0.00694
1813.00924,0.00705
1812.04487,0.00719
1811.08051,0.00725
1810.11614,0.00723
1809.15177,0.00730
1808.18741,0.00749
1807.22304,0.00767
1806.25867,0.00773
1805.29431,0.00774
1804.32994,0.00778
1803.36557,0.00786
1802.40121,0.00793
1801.43684,0.00796
1800.47247,0.00795
1799.50811,0.00798
1798.54374,0.00808
1797.57937,0.00826
1796.61501,0.00848
1795.65064,0.00865
1794.68627,0.00874
1793.72191,0.00879
1792.75754,0.00886
1791.79317,0.00897
1790.82881,0.00907
1789.86444,0.00914
1788.90007,0.00921
1787.93571,0.00936
1786.97134,0.00954
1786.00697,0.00969
1785.04261,0.00980
1784.07824,0.00998
1783.11387,0.01016
1782.14951,0.01026
1781.18514,0.01034
1780.22077,0.01052
1779.25641,0.01082
1778.29204,0.01111
1777.32767,0.01134
1776.36331,0.01155
1775.39894,0.01177
1774.43457,0.01207
1773.47021,0.01246
1772.50584,0.01284
1771.54147,0.01310
1770.57711,0.01335
1769.61274,0.01374
1768.64837,0.01421
1767.68401,0.01460
1766.71964,0.01489
1765.75527,0.01523
1764.79091,0.01567
1763.82654,0.01617
1762.86217,0.01661
1761.89781,0.01701
1760.93344,0.01740
1759.96907,0.01780
1759.00471,0.01826
1758.04034,0.01876
1757.07597,0.01924
1756.11161,0.01964
1755.14724,0.02004
1754.18288,0.02052
1753.21851,0.02107
1752.25414,0.02161
1751.28978,0.02208
1750.32541,0.02248
1749.36104,0.02286
1748.39668,0.02327
1747.43231,0.02365
1746.46794,0.02400
1745.50358,0.02436
1744.53921,0.02473
1743.57484,0.02507
1742.61048,0.02537
1741.64611,0.02566
1740.68174,0.02600
1739.71738,0.02633
1738.75301,0.02659
1737.78864,0.02678
1736.82428,0.02697
1735.85991,0.02713
1734.89554,0.02724
1733.93118,0.02729
1732.96681,0.02732
1732.00244,0.02740
1731.03808,0.02750
1730.07371,0.02754
1729.10934,0.02750
1728.14498,0.02746
1727.18061,0.02741
1726.21624,0.02736
1725.25188,0.02729
1724.28751,0.02722
1723.32314,0.02713
1722.35878,0.02698
1721.39441,0.02682
1720.43004,0.02668
1719.46568,0.02652
1718.50131,0.02632
1717.53694,0.02611
1716.57258,0.02599
1715.60821,0.02587
1714.64384,0.02567
1713.67948,0.02537
1712.71511,0.02507
1711.75074,0.02481
1710.78638,0.02458
1709.82201,0.02438
1708.85764,0.02424
1707.89328,0.02414
1706.92891,0.02401
1705.96454,0.02382
1705.00018,0.02359
1704.03581,0.02338
1703.07144,0.02330
1702.10708,0.02324
1701.14271,0.02307
1700.17834,0.02276
1699.21398,0.02260
1698.24961,0.02266
1697.28524,0.02275
1696.32088,0.02271
1695.35651,0.02262
1694.39214,0.02260
1693.42778,0.02266
1692.46341,0.02272
1691.49905,0.02274
1690.53468,0.02275
1689.57031,0.02278
1688.60595,0.02282
1687.64158,0.02287
1686.67721,0.02300
1685.71285,0.02325
1684.74848,0.02350
1683.78411,0.02362
1682.81975,0.02367
1681.85538,0.02378
1680.89101,0.02396
1679.92665,0.02416
1678.96228,0.02433
1677.99791,0.02452
1677.03355,0.02475
1676.06918,0.02500
1675.10481,0.02526
1674.14045,0.02549
1673.17608,0.02573
1672.21171,0.02603
1671.24735,0.02637
1670.28298,0.02668
1669.31861,0.02698
1668.35425,0.02734
1667.38988,0.02775
1666.42551,0.02814
1665.46115,0.02847
1664.49678,0.02877
1663.53241,0.02907
1662.56805,0.02942
1661.60368,0.02985
1660.63931,0.03029
1659.67495,0.03070
1658.71058,0.03106
1657.74621,0.03141
1656.78185,0.03178
1655.81748,0.03213
1654.85311,0.03242
1653.88875,0.03266
1652.92438,0.03292
1651.96001,0.03326
1650.99565,0.03361
1650.03128,0.03391
1649.06691,0.03419
1648.10255,0.03450
1647.13818,0.03479
1646.17381,0.03497
1645.20945,0.03507
1644.24508,0.03523
1643.28071,0.03546
1642.31635,0.03570
1641.35198,0.03589
1640.38761,0.03606
1639.42325,0.03625
1638.45888,0.03641
1637.49451,0.03659
1636.53015,0.03676
1635.56578,0.03688
1634.60141,0.03693
1633.63705,0.03699
1632.67268,0.03713
1631.70831,0.03727
1630.74395,0.03732
1629.77958,0.03730
1628.81522,0.03725
1627.85085,0.03715
1626.88648,0.03703
1625.92212,0.03696
1624.95775,0.03691
1623.99338,0.03673
1623.02902,0.03639
1622.06465,0.03608
1621.10028,0.03580
1620.13592,0.03554
1619.17155,0.03535
1618.20718,0.03510
1617.24282,0.03464
1616.27845,0.03400
1615.31408,0.03356
1614.34972,0.03330
1613.38535,0.03300
1612.42098,0.03255
1611.45662,0.03207
1610.49225,0.03167
1609.52788,0.03133
1608.56352,0.03102
1607.59915,0.03063
1606.63478,0.03016
1605.67042,0.02970
1604.70605,0.02932
1603.74168,0.02898
1602.77732,0.02862
1601.81295,0.02826
1600.84858,0.02793
1599.88422,0.02764
1598.91985,0.02735
1597.95548,0.02705
1596.99112,0.02673
1596.02675,0.02637
1595.06238,0.02599
1594.09802,0.02562
1593.13365,0.02528
1592.16928,0.02495
1591.20492,0.02462
1590.24055,0.02429
1589.27618,0.02394
1588.31182,0.02356
1587.34745,0.02320
1586.38308,0.02290
1585.41872,0.02261
1584.45435,0.02230
1583.48998,0.02196
1582.52562,0.02159
1581.56125,0.02124
1580.59688,0.02092
1579.63252,0.02065
1578.66815,0.02043
1577.70378,0.02022
1576.73942,0.01991
1575.77505,0.01952
1574.81068,0.01920
1573.84632,0.01895
1572.88195,0.01873
1571.91758,0.01849
1570.95322,0.01823
1569.98885,0.01792
1569.02448,0.01761
1568.06012,0.01742
1567.09575,0.01729
1566.13139,0.01712
1565.16702,0.01687
1564.20265,0.01660
1563.23829,0.01639
1562.27392,0.01631
1561.30955,0.01630
1560.34519,0.01617
1559.38082,0.01589
1558.41645,0.01561
1557.45209,0.01548
1556.48772,0.01551
1555.52335,0.01554
1554.55899,0.01544
1553.59462,0.01524
1552.63025,0.01516
1551.66589,0.01518
1550.70152,0.01518
1549.73715,0.01504
1548.77279,0.01485
1547.80842,0.01473
1546.84405,0.01467
1545.87969,0.01460
1544.91532,0.01450
1543.95095,0.01443
1542.98659,0.01437
1542.02222,0.01426
1541.05785,0.01407
1540.09349,0.01385
1539.12912,0.01368
1538.16475,0.01356
1537.20039,0.01352
1536.23602,0.01353
1535.27165,0.01353
1534.30729,0.01347
1533.34292,0.01331
1532.37855,0.01314
1531.41419,0.01302
1530.44982,0.01296
1529.48545,0.01293
1528.52109,0.01291
1527.55672,0.01288
1526.59235,0.01284
1525.62799,0.01277
1524.66362,0.01268
1523.69925,0.01260
1522.73489,0.01255
1521.77052,0.01251
1520.80615,0.01252
1519.84179,0.01255
1518.87742,0.01259
1517.91305,0.01260
1516.94869,0.01264
1515.98432,0.01271
1515.01995,0.01277
1514.05559,0.01279
1513.09122,0.01278
1512.12685,0.01279
1511.16249,0.01286
1510.19812,0.01301
1509.23375,0.01319
1508.26939,0.01328
1507.30502,0.01325
1506.34065,0.01317
1505.37629,0.01320
1504.41192,0.01333
1503.44756,0.01350
1502.48319,0.01364
1501.51882,0.01379
1500.55446,0.01396
1499.59009,0.01416
1498.62572,0.01442
1497.66136,0.01471
1496.69699,0.01498
1495.73262,0.01518
1494.76826,0.01536
1493.80389,0.01562
1492.83952,0.01593
1491.87516,0.01628
1490.91079,0.01663
1489.94642,0.01697
1488.98206,0.01728
1488.01769,0.01761
1487.05332,0.01802
1486.08896,0.01843
1485.12459,0.01881
1484.16022,0.01920
1483.19586,0.01968
1482.23149,0.02020
1481.26712,0.02067
1480.30276,0.02111
1479.33839,0.02158
1478.37402,0.02213
1477.40966,0.02270
1476.44529,0.02330
1475.48092,0.02389
1474.51656,0.02447
1473.55219,0.02508
1472.58782,0.02573
1471.62346,0.02637
1470.65909,0.02696
1469.69472,0.02755
1468.73036,0.02817
1467.76599,0.02880
1466.80162,0.02941
1465.83726,0.03003
1464.87289,0.03072
1463.90852,0.03144
1462.94416,0.03213
1461.97979,0.03279
1461.01542,0.03344
1460.05106,0.03410
1459.08669,0.03473
1458.12232,0.03540
1457.15796,0.03609
1456.19359,0.03683
1455.22922,0.03749
1454.26486,0.03807
1453.30049,0.03868
1452.33612,0.03937
1451.37176,0.04009
1450.40739,0.04073
1449.44302,0.04134
1448.47866,0.04197
1447.51429,0.04263
1446.54992,0.04328
1445.58556,0.04392
1444.62119,0.04456
1443.65682,0.04519
1442.69246,0.04581
1441.72809,0.04644
1440.76373,0.04705
1439.79936,0.04764
1438.83499,0.04815
1437.87063,0.04865
1436.90626,0.04916
1435.94189,0.04964
1434.97753,0.05001
1434.01316,0.05035
1433.04879,0.05068
1432.08443,0.05094
1431.12006,0.05115
1430.15569,0.05139
1429.19133,0.05168
1428.22696,0.05193
1427.26259,0.05214
1426.29823,0.05236
1425.33386,0.05262
1424.36949,0.05288
1423.40513,0.05307
1422.44076,0.05320
1421.47639,0.05331
1420.51203,0.05343
1419.54766,0.05355
1418.58329,0.05367
1417.61893,0.05377
1416.65456,0.05384
1415.69019,0.05389
1414.72583,0.05390
1413.76146,0.05387
1412.79709,0.05382
1411.83273,0.05379
1410.86836,0.05377
1409.90399,0.05374
1408.93963,0.05373
1407.97526,0.05373
1407.01089,0.05372
1406.04653,0.05367
1405.08216,0.05358
1404.11779,0.05352
1403.15343,0.05346
1402.18906,0.05341
1401.22469,0.05332
1400.26033,0.05317
1399.29596,0.05300
1398.33159,0.05285
1397.36723,0.05274
1396.40286,0.05254
1395.43849,0.05218
1394.47413,0.05178
1393.50976,0.05164
1392.54539,0.05175
1391.58103,0.05188
1390.61666,0.05185
1389.65229,0.05177
1388.68793,0.05173
1387.72356,0.05171
1386.75919,0.05167
1385.79483,0.05162
1384.83046,0.05156
1383.86609,0.05152
1382.90173,0.05148
1381.93736,0.05148
1380.97299,0.05149
1380.00863,0.05152
1379.04426,0.05157
1378.07989,0.05160
1377.11553,0.05159
1376.15116,0.05151
1375.18680,0.05142
1374.22243,0.05139
1373.25806,0.05139
1372.29370,0.05135
1371.32933,0.05127
1370.36496,0.05116
1369.40060,0.05103
1368.43623,0.05092
1367.47186,0.05084
1366.50750,0.05078
1365.54313,0.05068
1364.57876,0.05055
1363.61440,0.05042
1362.65003,0.05033
1361.68566,0.05027
1360.72130,0.05025
1359.75693,0.05025
1358.79256,0.05023
1357.82820,0.05019
1356.86383,0.05014
1355.89946,0.05005
1354.93510,0.04992
1353.97073,0.04978
1353.00636,0.04970
1352.04200,0.04966
1351.07763,0.04959
1350.11326,0.04947
1349.14890,0.04928
1348.18453,0.04908
1347.22016,0.04890
1346.25580,0.04874
1345.29143,0.04856
1344.32706,0.04837
1343.36270,0.04820
1342.39833,0.04803
1341.43396,0.04787
1340.46960,0.04772
1339.50523,0.04756
1338.54086,0.04736
1337.57650,0.04709
1336.61213,0.04678
1335.64776,0.04646
1334.68340,0.04618
1333.71903,0.04593
1332.75466,0.04565
1331.79030,0.04531
1330.82593,0.04492
1329.86156,0.04451
1328.89720,0.04410
1327.93283,0.04368
1326.96846,0.04325
1326.00410,0.04285
1325.03973,0.04253
1324.07536,0.04227
1323.11100,0.04201
1322.14663,0.04175
1321.18226,0.04150
1320.21790,0.04125
1319.25353,0.04101
1318.28916,0.04072
1317.32480,0.04035
1316.36043,0.03989
1315.39606,0.03940
1314.43170,0.03892
1313.46733,0.03847
1312.50297,0.03802
1311.53860,0.03754
1310.57423,0.03703
1309.60987,0.03654
1308.64550,0.03611
1307.68113,0.03575
1306.71677,0.03546
1305.75240,0.03519
1304.78803,0.03497
1303.82367,0.03480
1302.85930,0.03470
1301.89493,0.03466
1300.93057,0.03467
1299.96620,0.03468
1299.00183,0.03467
1298.03747,0.03466
1297.07310,0.03467
1296.10873,0.03468
1295.14437,0.03471
1294.18000,0.03476
1293.21563,0.03485
1292.25127,0.03492
1291.28690,0.03496
1290.32253,0.03499
1289.35817,0.03505
1288.39380,0.03510
1287.42943,0.03505
1286.46507,0.03488
1285.50070,0.03470
1284.53633,0.03458
1283.57197,0.03446
1282.60760,0.03424
1281.64323,0.03393
1280.67887,0.03363
1279.71450,0.03334
1278.75013,0.03304
1277.78577,0.03272
1276.82140,0.03239
1275.85703,0.03206
1274.89267,0.03173
1273.92830,0.03142
1272.96393,0.03112
1271.99957,0.03079
1271.03520,0.03043
1270.07083,0.03012
1269.10647,0.02985
1268.14210,0.02956
1267.17773,0.02924
1266.21337,0.02896
1265.24900,0.02872
1264.28463,0.02850
1263.32027,0.02828
1262.35590,0.02804
1261.39153,0.02778
1260.42717,0.02751
1259.46280,0.02726
1258.49843,0.02704
1257.53407,0.02685
1256.56970,0.02670
1255.60533,0.02661
1254.64097,0.02654
1253.67660,0.02642
1252.71223,0.02624
1251.74787,0.02608
1250.78350,0.02594
1249.81914,0.02584
1248.85477,0.02580
1247.89040,0.02582
1246.92604,0.02581
1245.96167,0.02576
1244.99730,0.02572
1244.03294,0.02568
1243.06857,0.02558
1242.10420,0.02544
1241.13984,0.02538
1240.17547,0.02546
1239.21110,0.02557
1238.24674,0.02559
1237.28237,0.02554
1236.31800,0.02549
1235.35364,0.02544
1234.38927,0.02537
1233.42490,0.02526
1232.46054,0.02520
1231.49617,0.02521
1230.53180,0.02524
1229.56744,0.02524
1228.60307,0.02524
1227.63870,0.02526
1226.67434,0.02534
1225.70997,0.02542
1224.74560,0.02549
1223.78124,0.02554
1222.81687,0.02557
1221.85250,0.02558
1220.88814,0.02556
1219.92377,0.02557
1218.95940,0.02563
1217.99504,0.02568
1217.03067,0.02572
1216.06630,0.02578
1215.10194,0.02589
1214.13757,0.02600
1213.17320,0.02608
1212.20884,0.02617
1211.24447,0.02629
1210.28010,0.02640
1209.31574,0.02649
1208.35137,0.02659
1207.38700,0.02671
1206.42264,0.02681
1205.45827,0.02691
1204.49390,0.02706
1203.52954,0.02726
1202.56517,0.02745
1201.60080,0.02760
1200.63644,0.02773
1199.67207,0.02791
1198.70770,0.02811
1197.74334,0.02832
1196.77897,0.02853
1195.81460,0.02873
1194.85024,0.02892
1193.88587,0.02912
1192.92150,0.02933
1191.95714,0.02955
1190.99277,0.02977
1190.02840,0.02996
1189.06404,0.03013
1188.09967,0.03028
1187.13531,0.03044
1186.17094,0.03062
1185.20657,0.03083
1184.24221,0.03108
1183.27784,0.03135
1182.31347,0.03161
1181.34911,0.03186
1180.38474,0.03211
1179.42037,0.03240
1178.45601,0.03271
1177.49164,0.03299
1176.52727,0.03321
1175.56291,0.03340
1174.59854,0.03360
1173.63417,0.03385
1172.66981,0.03414
1171.70544,0.03442
1170.74107,0.03470
1169.77671,0.03500
1168.81234,0.03529
1167.84797,0.03551
1166.88361,0.03570
1165.91924,0.03592
1164.95487,0.03617
1163.99051,0.03644
1163.02614,0.03672
1162.06177,0.03699
1161.09741,0.03726
1160.13304,0.03757
1159.16867,0.03788
1158.20431,0.03816
1157.23994,0.03844
1156.27557,0.03873
1155.31121,0.03906
1154.34684,0.03947
1153.38247,0.03991
1152.41811,0.04034
1151.45374,0.04076
1150.48937,0.04122
1149.52501,0.04172
1148.56064,0.04222
1147.59627,0.04273
1146.63191,0.04326
1145.66754,0.04378
1144.70317,0.04427
1143.73881,0.04475
1142.77444,0.04527
1141.81007,0.04579
1140.84571,0.04628
1139.88134,0.04669
1138.91697,0.04697
1137.95261,0.04713
1136.98824,0.04718
1136.02387,0.04723
1135.05951,0.04732
1134.09514,0.04739
1133.13077,0.04738
1132.16641,0.04726
1131.20204,0.04710
1130.23767,0.04700
1129.27331,0.04699
1128.30894,0.04701
1127.34457,0.04695
1126.38021,0.04681
1125.41584,0.04672
1124.45148,0.04672
1123.48711,0.04676
1122.52274,0.04675
1121.55838,0.04667
1120.59401,0.04659
1119.62964,0.04657
1118.66528,0.04663
1117.70091,0.04671
1116.73654,0.04676
1115.77218,0.04670
1114.80781,0.04652
1113.84344,0.04637
1112.87908,0.04632
1111.91471,0.04632
1110.95034,0.04626
1109.98598,0.04616
1109.02161,0.04608
1108.05724,0.04606
1107.09288,0.04604
1106.12851,0.04594
1105.16414,0.04576
1104.19978,0.04560
1103.23541,0.04552
1102.27104,0.04553
1101.30668,0.04549
1100.34231,0.04533
1099.37794,0.04511
1098.41358,0.04499
1097.44921,0.04500
1096.48484,0.04502
1095.52048,0.04494
1094.55611,0.04476
1093.59174,0.04454
1092.62738,0.04428
1091.66301,0.04399
1090.69864,0.04366
1089.73428,0.04333
1088.76991,0.04304
1087.80554,0.04280
1086.84118,0.04256
1085.87681,0.04228
1084.91244,0.04192
1083.94808,0.04154
1082.98371,0.04117
1082.01934,0.04076
1081.05498,0.04030
1080.09061,0.03986
1079.12624,0.03952
1078.16188,0.03922
1077.19751,0.03889
1076.23314,0.03849
1075.26878,0.03806
1074.30441,0.03772
1073.34004,0.03749
1072.37568,0.03726
1071.41131,0.03693
1070.44694,0.03660
1069.48258,0.03633
1068.51821,0.03601
1067.55384,0.03545
1066.58948,0.03482
1065.62511,0.03442
1064.66074,0.03426
1063.69638,0.03420
1062.73201,0.03410
1061.76765,0.03391
1060.80328,0.03360
1059.83891,0.03313
1058.87455,0.03252
1057.91018,0.03195
1056.94581,0.03161
1055.98145,0.03144
1055.01708,0.03125
1054.05271,0.03098
1053.08835,0.03071
1052.12398,0.03046
1051.15961,0.03021
1050.19525,0.02999
1049.23088,0.02984
1048.26651,0.02968
1047.30215,0.02946
1046.33778,0.02925
1045.37341,0.02908
1044.40905,0.02891
1043.44468,0.02874
1042.48031,0.02864
1041.51595,0.02865
1040.55158,0.02866
1039.58721,0.02850
1038.62285,0.02819
1037.65848,0.02797
1036.69411,0.02799
1035.72975,0.02816
1034.76538,0.02829
1033.80101,0.02834
1032.83665,0.02838
1031.87228,0.02852
1030.90791,0.02872
1029.94355,0.02878
1028.97918,0.02863
1028.01481,0.02847
1027.05045,0.02857
1026.08608,0.02893
1025.12171,0.02931
1024.15735,0.02953
1023.19298,0.02961
1022.22861,0.02966
1021.26425,0.02975
1020.29988,0.02984
1019.33551,0.02994
1018.37115,0.03006
1017.40678,0.03018
1016.44241,0.03026
1015.47805,0.03033
1014.51368,0.03039
1013.54931,0.03046
1012.58495,0.03053
1011.62058,0.03062
1010.65621,0.03064
1009.69185,0.03060
1008.72748,0.03059
1007.76311,0.03065
1006.79875,0.03066
1005.83438,0.03054
1004.87001,0.03035
1003.90565,0.03016
1002.94128,0.02995
1001.97691,0.02967
1001.01255,0.02933
1000.04818,0.02895
999.08382,0.02854
998.11945,0.02813
997.15508,0.02774
996.19072,0.02735
995.22635,0.02689
994.26198,0.02632
993.29762,0.02573
992.33325,0.02519
991.36888,0.02468
990.40452,0.02414
989.44015,0.02358
988.47578,0.02311
987.51142,0.02276
986.54705,0.02246
985.58268,0.02211
984.61832,0.02170
983.65395,0.02129
982.68958,0.02094
981.72522,0.02066
980.76085,0.02044
979.79648,0.02022
978.83212,0.01995
977.86775,0.01966
976.90338,0.01942
975.93902,0.01927
974.97465,0.01913
974.01028,0.01898
973.04592,0.01882
972.08155,0.01865
971.11718,0.01851
970.15282,0.01843
969.18845,0.01840
968.22408,0.01838
967.25972,0.01830
966.29535,0.01822
965.33098,0.01826
964.36662,0.01845
963.40225,0.01872
962.43788,0.01898
961.47352,0.01922
960.50915,0.01948
959.54478,0.01977
958.58042,0.02013
957.61605,0.02062
956.65168,0.02122
955.68732,0.02185
954.72295,0.02246
953.75858,0.02302
952.79422,0.02351
951.82985,0.02388
950.86548,0.02414
949.90112,0.02433
948.93675,0.02439
947.97238,0.02427
947.00802,0.02402
946.04365,0.02371
945.07928,0.02329
944.11492,0.02278
943.15055,0.02226
942.18618,0.02172
941.22182,0.02116
940.25745,0.02066
939.29308,0.02025
938.32872,0.01986
937.36435,0.01942
936.39998,0.01895
935.43562,0.01847
934.47125,0.01798
933.50689,0.01749
932.54252,0.01698
931.57815,0.01646
930.61379,0.01597
929.64942,0.01553
928.68505,0.01515
927.72069,0.01483
926.75632,0.01456
925.79195,0.01434
924.82759,0.01411
923.86322,0.01388
922.89885,0.01367
921.93449,0.01355
920.97012,0.01347
920.00575,0.01338
919.04139,0.01326
918.07702,0.01313
917.11265,0.01298
916.14829,0.01281
915.18392,0.01268
914.21955,0.01258
913.25519,0.01243
912.29082,0.01226
911.32645,0.01213
910.36209,0.01198
909.39772,0.01180
908.43335,0.01162
907.46899,0.01146
906.50462,0.01131
905.54025,0.01115
904.57589,0.01093
903.61152,0.01070
902.64715,0.01053
901.68279,0.01039
900.71842,0.01024
899.75405,0.01007
898.78969,0.00991
897.82532,0.00974
896.86095,0.00954
895.89659,0.00936
894.93222,0.00920
893.96785,0.00903
893.00349,0.00884
892.03912,0.00867
891.07475,0.00857
890.11039,0.00859
889.14602,0.00864
888.18165,0.00863
887.21729,0.00851
886.25292,0.00835
885.28855,0.00817
884.32419,0.00800
883.35982,0.00792
882.39545,0.00794
881.43109,0.00790
880.46672,0.00775
879.50235,0.00760
878.53799,0.00759
877.57362,0.00764
876.60925,0.00770
875.64489,0.00776
874.68052,0.00780
873.71615,0.00776
872.75179,0.00770
871.78742,0.00766
870.82306,0.00760
869.85869,0.00750
868.89432,0.00741
867.92996,0.00733
866.96559,0.00726
866.00122,0.00721
865.03686,0.00723
864.07249,0.00729
863.10812,0.00729
862.14376,0.00721
861.17939,0.00713
860.21502,0.00707
859.25066,0.00697
858.28629,0.00686
857.32192,0.00678
856.35756,0.00674
855.39319,0.00668
854.42882,0.00661
853.46446,0.00660
852.50009,0.00664
851.53572,0.00672
850.57136,0.00676
849.60699,0.00670
848.64262,0.00659
847.67826,0.00654
846.71389,0.00654
845.74952,0.00650
844.78516,0.00641
843.82079,0.00636
842.85642,0.00636
841.89206,0.00636
840.92769,0.00630
839.96332,0.00621
838.99896,0.00620
838.03459,0.00625
837.07022,0.00632
836.10586,0.00639
835.14149,0.00645
834.17712,0.00648
833.21276,0.00660
832.24839,0.00689
831.28402,0.00724
830.31966,0.00749
829.35529,0.00766
828.39092,0.00778
827.42656,0.00780
826.46219,0.00772
825.49782,0.00756
824.53346,0.00729
823.56909,0.00689
822.60472,0.00650
821.64036,0.00620
820.67599,0.00595
819.71162,0.00566
818.74726,0.00541
817.78289,0.00523
816.81852,0.00511
815.85416,0.00501
814.88979,0.00495
813.92542,0.00488
812.96106,0.00478
811.99669,0.00467
811.03232,0.00457
810.06796,0.00449
809.10359,0.00446
808.13923,0.00446
807.17486,0.00446
806.21049,0.00442
805.24613,0.00441
804.28176,0.00444
803.31739,0.00447
802.35303,0.00440
801.38866,0.00430
800.42429,0.00426
799.45993,0.00433
798.49556,0.00442
797.53119,0.00443
796.56683,0.00434
795.60246,0.00420
794.63809,0.00410
793.67373,0.00407
792.70936,0.00409
791.74499,0.00413
790.78063,0.00424
789.81626,0.00440
788.85189,0.00450
787.88753,0.00445
786.92316,0.00429
785.95879,0.00420
784.99443,0.00424
784.03006,0.00427
783.06569,0.00423
782.10133,0.00424
781.13696,0.00434
780.17259,0.00439
779.20823,0.00428
778.24386,0.00412
777.27949,0.00406
776.31513,0.00414
775.35076,0.00426
774.38639,0.00439
773.42203,0.00455
772.45766,0.00470
771.49329,0.00474
770.52893,0.00467
769.56456,0.00464
768.60019,0.00469
767.63583,0.00471
766.67146,0.00469
765.70709,0.00466
764.74273,0.00461
763.77836,0.00450
762.81399,0.00443
761.84963,0.00443
760.88526,0.00443
759.92089,0.00441
758.95653,0.00441
757.99216,0.00443
757.02779,0.00440
756.06343,0.00429
755.09906,0.00418
754.13469,0.00415
753.17033,0.00413
752.20596,0.00408
751.24159,0.00405
750.27723,0.00412
749.31286,0.00427
748.34849,0.00443
747.38413,0.00453
746.41976,0.00449
745.45540,0.00433
744.49103,0.00423
743.52666,0.00429
742.56230,0.00443
741.59793,0.00448
740.63356,0.00442
739.66920,0.00434
738.70483,0.00429
737.74046,0.00429
736.77610,0.00441
735.81173,0.00457
734.84736,0.00460
733.88300,0.00450
732.91863,0.00448
731.95426,0.00461
730.98990,0.00476
730.02553,0.00476
729.06116,0.00473
728.09680,0.00483
727.13243,0.00503
726.16806,0.00518
725.20370,0.00526
724.23933,0.00533
723.27496,0.00539
722.31060,0.00541
721.34623,0.00550
720.38186,0.00572
719.41750,0.00594
718.45313,0.00602
717.48876,0.00599
716.52440,0.00597
715.56003,0.00605
714.59566,0.00616
713.63130,0.00627
712.66693,0.00637
711.70256,0.00644
710.73820,0.00645
709.77383,0.00642
708.80946,0.00643
707.84510,0.00653
706.88073,0.00665
705.91636,0.00670
704.95200,0.00663
703.98763,0.00648
703.02326,0.00637
702.05890,0.00635
701.09453,0.00637
700.13016,0.00640
699.16580,0.00642
698.20143,0.00645
697.23706,0.00655
696.27270,0.00668
695.30833,0.00681
694.34396,0.00685
693.37960,0.00677
692.41523,0.00662
691.45086,0.00658
690.48650,0.00672
689.52213,0.00689
688.55776,0.00698
687.59340,0.00702
686.62903,0.00708
685.66466,0.00715
684.70030,0.00716
683.73593,0.00708
682.77157,0.00692
681.80720,0.00681
680.84283,0.00688
679.87847,0.00711
678.91410,0.00738
677.94973,0.00761
676.98537,0.00771
676.02100,0.00770
675.05663,0.00771
674.09227,0.00778
673.12790,0.00785
672.16353,0.00786
671.19917,0.00800
670.23480,0.00880
669.27043,0.00989
668.30607,0.01026
667.34170,0.00936
666.37733,0.00833
665.41297,0.00795
664.44860,0.00817
663.48423,0.00840
662.51987,0.00857
661.55550,0.00876
660.59113,0.00899
659.62677,0.00919
658.66240,0.00932
657.69803,0.00941
656.73367,0.00948
655.76930,0.00958
654.80493,0.00979
653.84057,0.01007
652.87620,0.01031
651.91183,0.01048
650.94747,0.01059
649.98310,0.01061
649.01873,0.01045
648.05437,0.01018
647.09000,0.01000
646.12563,0.01008
645.16127,0.01030
644.19690,0.01044
643.23253,0.01041
642.26817,0.01030
641.30380,0.01020
640.33943,0.01015
639.37507,0.01018
638.41070,0.01024
637.44633,0.01030
636.48197,0.01032
635.51760,0.01035
634.55323,0.01042
633.58887,0.01055
632.62450,0.01066
631.66013,0.01068
630.69577,0.01058
629.73140,0.01050
628.76703,0.01060
627.80267,0.01083
626.83830,0.01105
625.87393,0.01118
624.90957,0.01123
623.94520,0.01118
622.98083,0.01113
622.01647,0.01120
621.05210,0.01135
620.08774,0.01144
619.12337,0.01146
618.15900,0.01154
617.19464,0.01171
616.23027,0.01181
615.26590,0.01176
614.30154,0.01164
613.33717,0.01155
612.37280,0.01141
611.40844,0.01124
610.44407,0.01113
609.47970,0.01115
608.51534,0.01126
607.55097,0.01135
606.58660,0.01138
605.62224,0.01132
604.65787,0.01120
603.69350,0.01111
602.72914,0.01110
601.76477,0.01113
600.80040,0.01112
599.83604,0.01108
598.87167,0.01104
597.90730,0.01096
596.94294,0.01085
595.97857,0.01066
595.01420,0.01040
594.04984,0.01012
593.08547,0.00989
592.12110,0.00974
591.15674,0.00963
590.19237,0.00952
589.22800,0.00932
588.26364,0.00909
587.29927,0.00899
586.33490,0.00899
585.37054,0.00893
584.40617,0.00871
583.44180,0.00851
582.47744,0.00854
581.51307,0.00872
580.54870,0.00882
579.58434,0.00874
578.61997,0.00860
577.65560,0.00851
576.69124,0.00849
575.72687,0.00854
574.76250,0.00860
573.79814,0.00860
572.83377,0.00856
571.86940,0.00854
570.90504,0.00844
569.94067,0.00829
568.97630,0.00824
568.01194,0.00835
567.04757,0.00842
566.08320,0.00827
565.11884,0.00802
564.15447,0.00791
563.19010,0.00812
562.22574,0.00850
561.26137,0.00862
560.29700,0.00834
559.33264,0.00805
558.36827,0.00808
557.40390,0.00819
556.43954,0.00811
555.47517,0.00792
554.51081,0.00784
553.54644,0.00790
552.58207,0.00794
551.61771,0.00792
550.65334,0.00784
549.68897,0.00783
548.72461,0.00803
547.76024,0.00831
546.79587,0.00838
545.83151,0.00818
544.86714,0.00797
543.90277,0.00787
542.93841,0.00782
541.97404,0.00781
541.00967,0.00787
540.04531,0.00788
539.08094,0.00765
538.11657,0.00726
537.15221,0.00699
536.18784,0.00706
535.22347,0.00734
534.25911,0.00765
533.29474,0.00793
532.33037,0.00806
531.36601,0.00794
530.40164,0.00765
529.43727,0.00751
528.47291,0.00761
527.50854,0.00761
526.54417,0.00722
525.57981,0.00680
524.61544,0.00684
523.65107,0.00716
522.68671,0.00722
521.72234,0.00701
520.75797,0.00698
519.79361,0.00729
518.82924,0.00759
517.86487,0.00759
516.90051,0.00738
515.93614,0.00724
514.97177,0.00727
514.00741,0.00737
513.04304,0.00750
512.07867,0.00774
511.11431,0.00793
510.14994,0.00781
509.18557,0.00749
508.22121,0.00734
507.25684,0.00747
506.29247,0.00764
505.32811,0.00769
504.36374,0.00764
503.39937,0.00762
502.43501,0.00759
501.47064,0.00751
500.50627,0.00739
499.54191,0.00735
498.57754,0.00733
497.61317,0.00721
496.64881,0.00706
495.68444,0.00692
494.72007,0.00672
493.75571,0.00656
492.79134,0.00666
491.82698,0.00695
490.86261,0.00717
489.89824,0.00725
488.93388,0.00730
487.96951,0.00758
487.00514,0.00801
486.04078,0.00817
485.07641,0.00781
484.11204,0.00715
483.14768,0.00645
482.18331,0.00584
481.21894,0.00561
480.25458,0.00605
479.29021,0.00682
478.32584,0.00719
477.36148,0.00698
476.39711,0.00660
475.43274,0.00645
474.46838,0.00676
473.50401,0.00745
472.53964,0.00812
471.57528,0.00842
470.61091,0.00819
469.64654,0.00743
468.68218,0.00669
467.71781,0.00687
466.75344,0.00803
465.78908,0.00889
464.82471,0.00836
463.86034,0.00694
462.89598,0.00591
461.93161,0.00564
460.96724,0.00576
460.00288,0.00625
459.03851,0.00691
458.07414,0.00683
457.10978,0.00550
456.14541,0.00400
455.18104,0.00351
454.21668,0.00404
453.25231,0.00473
452.28794,0.00514
451.32358,0.00534
450.35921,0.00548
449.39484,0.00536
448.43048,0.00459
447.46611,0.00361
446.50174,0.00358
445.53738,0.00460
444.57301,0.00511
443.60864,0.00449
442.64428,0.00413
441.67991,0.00487
440.71554,0.00564
439.75118,0.00551
438.78681,0.00488
437.82244,0.00429
436.85808,0.00361
435.89371,0.00274
434.92934,0.00209
433.96498,0.00213
433.00061,0.00275
432.03624,0.00335
431.07188,0.00339
430.10751,0.00289
429.14315,0.00248
428.17878,0.00268
427.21441,0.00331
426.25005,0.00357
425.28568,0.00337
424.32131,0.00339
423.35695,0.00370
422.39258,0.00346
421.42821,0.00305
420.46385,0.00354
419.49948,0.00436
418.53511,0.00409
417.57075,0.00331
416.60638,0.00301
415.64201,0.00277
414.67765,0.00191
413.71328,0.00098
412.74891,0.00068
411.78455,0.00113
410.82018,0.00179
409.85581,0.00201
408.89145,0.00193
407.92708,0.00195
406.96271,0.00214
405.99835,0.00227
405.03398,0.00193
404.06961,0.00096
403.10525,0.00027
402.14088,0.00054
401.17651,0.00092
400.21215,0.00092
399.24778,0.00092
