1900.76660,0.00033
1899.80223,0.00034
1898.83787,0.00034
1897.87350,0.00035
1896.90913,0.00035
1895.94477,0.00036
1894.98040,0.00036
1894.01603,0.00037
1893.05167,0.00037
1892.08730,0.00038
1891.12293,0.00038
1890.15857,0.00039
1889.19420,0.00040
1888.22983,0.00040
1887.26547,0.00041
1886.30110,0.00041
1885.33673,0.00042
1884.37237,0.00042
1883.40800,0.00043
1882.44364,0.00043
1881.47927,0.00044
1880.51490,0.00032
1879.55054,0.00023
1878.58617,0.00016
1877.62180,0.00007
1876.65744,0.00001
1875.69307,0.00003
1874.72870,0.00014
1873.76434,0.00023
1872.79997,0.00017
1871.83560,0.00009
1870.87124,0.00018
1869.90687,0.00030
1868.94250,0.00027
1867.97814,0.00017
1867.01377,0.00016
1866.04940,0.00024
1865.08504,0.00029
1864.12067,0.00021
1863.15630,0.00016
1862.19194,0.00021
1861.22757,0.00038
1860.26320,0.00057
1859.29884,0.00071
1858.33447,0.00075
1857.37010,0.00066
1856.40574,0.00062
1855.44137,0.00073
1854.47700,0.00095
1853.51264,0.00110
1852.54827,0.00121
1851.58390,0.00134
1850.61954,0.00148
1849.65517,0.00161
1848.69080,0.00162
1847.72644,0.00161
1846.76207,0.00176
1845.79770,0.00197
1844.83334,0.00208
1843.86897,0.00217
1842.90460,0.00241
1841.94024,0.00266
1840.97587,0.00294
1840.01150,0.00322
1839.04714,0.00355
1838.08277,0.00382
1837.11840,0.00396
1836.15404,0.00404
1835.18967,0.00407
1834.22530,0.00420
1833.26094,0.00440
1832.29657,0.00466
1831.33220,0.00484
1830.36784,0.00494
1829.40347,0.00528
1828.43910,0.00581
1827.47474,0.00633
1826.51037,0.00657
1825.54600,0.00666
1824.58164,0.00681
1823.61727,0.00704
1822.65290,0.00730
1821.68854,0.00740
1820.72417,0.00754
1819.75981,0.00780
1818.79544,0.00807
1817.83107,0.00829
1816.86671,0.00851
1815.90234,0.00884
1814.93797,0.00911
1813.97361,0.00930
1813.00924,0.00934
1812.04487,0.00939
1811.08051,0.00947
1810.11614,0.00953
1809.15177,0.00968
1808.18741,0.00990
1807.22304,0.01013
1806.25867,0.01028
1805.29431,0.01042
1804.32994,0.01045
1803.36557,0.01043
1802.40121,0.01060
1801.43684,0.01081
1800.47247,0.01090
1799.50811,0.01092
1798.54374,0.01111
1797.57937,0.01135
1796.61501,0.01153
1795.65064,0.01177
1794.68627,0.01198
1793.72191,0.01206
1792.75754,0.01202
1791.79317,0.01222
1790.82881,0.01273
1789.86444,0.01325
1788.90007,0.01359
1787.93571,0.01380
1786.97134,0.01407
1786.00697,0.01436
1785.04261,0.01472
1784.07824,0.01513
1783.11387,0.01552
1782.14951,0.01589
1781.18514,0.01625
1780.22077,0.01671
1779.25641,0.01724
1778.29204,0.01788
1777.32767,0.01843
1776.36331,0.01892
1775.39894,0.01947
1774.43457,0.02000
1773.47021,0.02049
1772.50584,0.02103
1771.54147,0.02192
1770.57711,0.02288
1769.61274,0.02370
1768.64837,0.02445
1767.68401,0.02528
1766.71964,0.02621
1765.75527,0.02714
1764.79091,0.02806
1763.82654,0.02874
1762.86217,0.02935
1761.89781,0.03025
1760.93344,0.03138
1759.96907,0.03250
1759.00471,0.03340
1758.04034,0.03422
1757.07597,0.03505
1756.11161,0.03608
1755.14724,0.03716
1754.18288,0.03811
1753.21851,0.03895
1752.25414,0.03973
1751.28978,0.04064
1750.32541,0.04152
1749.36104,0.04250
1748.39668,0.04347
1747.43231,0.04441
1746.46794,0.04519
1745.50358,0.04590
1744.53921,0.04667
1743.57484,0.04743
1742.61048,0.04821
1741.64611,0.04882
1740.68174,0.04944
1739.71738,0.05012
1738.75301,0.05074
1737.78864,0.05128
1736.82428,0.05171
1735.85991,0.05195
1734.89554,0.05192
1733.93118,0.05210
1732.96681,0.05258
1732.00244,0.05306
1731.03808,0.05326
1730.07371,0.05329
1729.10934,0.05342
1728.14498,0.05352
1727.18061,0.05347
1726.21624,0.05328
1725.25188,0.05309
1724.28751,0.05294
1723.32314,0.05271
1722.35878,0.05241
1721.39441,0.05206
1720.43004,0.05180
1719.46568,0.05146
1718.50131,0.05083
1717.53694,0.05012
1716.57258,0.04953
1715.60821,0.04917
1714.64384,0.04878
1713.67948,0.04848
1712.71511,0.04815
1711.75074,0.04769
1710.78638,0.04710
1709.82201,0.04650
1708.85764,0.04596
1707.89328,0.04536
1706.92891,0.04478
1705.96454,0.04417
1705.00018,0.04359
1704.03581,0.04310
1703.07144,0.04281
1702.10708,0.04263
1701.14271,0.04162
1700.17834,0.04065
1699.21398,0.04024
1698.24961,0.04058
1697.28524,0.04044
1696.32088,0.03992
1695.35651,0.03944
1694.39214,0.03927
1693.42778,0.03933
1692.46341,0.03924
1691.49905,0.03912
1690.53468,0.03900
1689.57031,0.03903
1688.60595,0.03913
1687.64158,0.03923
1686.67721,0.03938
1685.71285,0.03927
1684.74848,0.03920
1683.78411,0.03948
1682.81975,0.04030
1681.85538,0.04100
1680.89101,0.04150
1679.92665,0.04203
1678.96228,0.04267
1677.99791,0.04346
1677.03355,0.04413
1676.06918,0.04489
1675.10481,0.04574
1674.14045,0.04669
1673.17608,0.04760
1672.21171,0.04846
1671.24735,0.04945
1670.28298,0.05037
1669.31861,0.05149
1668.35425,0.05272
1667.38988,0.05408
1666.42551,0.05537
1665.46115,0.05659
1664.49678,0.05780
1663.53241,0.05900
1662.56805,0.06040
1661.60368,0.06178
1660.63931,0.06321
1659.67495,0.06461
1658.71058,0.06600
1657.74621,0.06744
1656.78185,0.06881
1655.81748,0.07017
1654.85311,0.07096
1653.88875,0.07184
1652.92438,0.07351
1651.96001,0.07571
1650.99565,0.07751
1650.03128,0.07877
1649.06691,0.08014
1648.10255,0.08134
1647.13818,0.08270
1646.17381,0.08429
1645.20945,0.08610
1644.24508,0.08780
1643.28071,0.08929
1642.31635,0.09082
1641.35198,0.09230
1640.38761,0.09381
1639.42325,0.09519
1638.45888,0.09658
1637.49451,0.09788
1636.53015,0.09905
1635.56578,0.10050
1634.60141,0.10207
1633.63705,0.10367
1632.67268,0.10499
1631.70831,0.10635
1630.74395,0.10752
1629.77958,0.10858
1628.81522,0.10945
1627.85085,0.11015
1626.88648,0.11092
1625.92212,0.11165
1624.95775,0.11229
1623.99338,0.11242
1623.02902,0.11255
1622.06465,0.11268
1621.10028,0.11276
1620.13592,0.11260
1619.17155,0.11227
1618.20718,0.11201
1617.24282,0.11095
1616.27845,0.10982
1615.31408,0.10897
1614.34972,0.10859
1613.38535,0.10777
1612.42098,0.10668
1611.45662,0.10572
1610.49225,0.10463
1609.52788,0.10357
1608.56352,0.10235
1607.59915,0.10123
1606.63478,0.10017
1605.67042,0.09919
1604.70605,0.09832
1603.74168,0.09726
1602.77732,0.09629
1601.81295,0.09534
1600.84858,0.09463
1599.88422,0.09385
1598.91985,0.09303
1597.95548,0.09223
1596.99112,0.09136
1596.02675,0.09063
1595.06238,0.08975
1594.09802,0.08899
1593.13365,0.08822
1592.16928,0.08748
1591.20492,0.08667
1590.24055,0.08570
1589.27618,0.08480
1588.31182,0.08377
1587.34745,0.08286
1586.38308,0.08184
1585.41872,0.08083
1584.45435,0.07978
1583.48998,0.07859
1582.52562,0.07745
1581.56125,0.07615
1580.59688,0.07493
1579.63252,0.07358
1578.66815,0.07228
1577.70378,0.07103
1576.73942,0.06917
1575.77505,0.06734
1574.81068,0.06582
1573.84632,0.06493
1572.88195,0.06352
1571.91758,0.06206
1570.95322,0.06057
1569.98885,0.05857
1569.02448,0.05669
1568.06012,0.05521
1567.09575,0.05422
1566.13139,0.05271
1565.16702,0.05100
1564.20265,0.04936
1563.23829,0.04793
1562.27392,0.04690
1561.30955,0.04564
1560.34519,0.04386
1559.38082,0.04143
1558.41645,0.03952
1557.45209,0.03854
1556.48772,0.03802
1555.52335,0.03732
1554.55899,0.03597
1553.59462,0.03470
1552.63025,0.03367
1551.66589,0.03291
1550.70152,0.03179
1549.73715,0.03056
1548.77279,0.02960
1547.80842,0.02879
1546.84405,0.02803
1545.87969,0.02681
1544.91532,0.02563
1543.95095,0.02469
1542.98659,0.02384
1542.02222,0.02312
1541.05785,0.02226
1540.09349,0.02145
1539.12912,0.02050
1538.16475,0.02010
1537.20039,0.01987
1536.23602,0.01952
1535.27165,0.01907
1534.30729,0.01829
1533.34292,0.01763
1532.37855,0.01712
1531.41419,0.01693
1530.44982,0.01658
1529.48545,0.01616
1528.52109,0.01576
1527.55672,0.01530
1526.59235,0.01495
1525.62799,0.01452
1524.66362,0.01428
1523.69925,0.01412
1522.73489,0.01385
1521.77052,0.01357
1520.80615,0.01331
1519.84179,0.01333
1518.87742,0.01323
1517.91305,0.01306
1516.94869,0.01285
1515.98432,0.01288
1515.01995,0.01312
1514.05559,0.01321
1513.09122,0.01321
1512.12685,0.01315
1511.16249,0.01325
1510.19812,0.01326
1509.23375,0.01313
1508.26939,0.01306
1507.30502,0.01287
1506.34065,0.01308
1505.37629,0.01354
1504.41192,0.01419
1503.44756,0.01450
1502.48319,0.01476
1501.51882,0.01502
1500.55446,0.01523
1499.59009,0.01543
1498.62572,0.01560
1497.66136,0.01594
1496.69699,0.01637
1495.73262,0.01686
1494.76826,0.01739
1493.80389,0.01790
1492.83952,0.01844
1491.87516,0.01883
1490.91079,0.01920
1489.94642,0.01969
1488.98206,0.02039
1488.01769,0.02106
1487.05332,0.02165
1486.08896,0.02236
1485.12459,0.02311
1484.16022,0.02391
1483.19586,0.02458
1482.23149,0.02529
1481.26712,0.02611
1480.30276,0.02695
1479.33839,0.02782
1478.37402,0.02860
1477.40966,0.02941
1476.44529,0.03026
1475.48092,0.03121
1474.51656,0.03214
1473.55219,0.03299
1472.58782,0.03409
1471.62346,0.03534
1470.65909,0.03665
1469.69472,0.03774
1468.73036,0.03884
1467.76599,0.03992
1466.80162,0.04090
1465.83726,0.04190
1464.87289,0.04294
1463.90852,0.04411
1462.94416,0.04521
1461.97979,0.04629
1461.01542,0.04729
1460.05106,0.04817
1459.08669,0.04911
1458.12232,0.05003
1457.15796,0.05120
1456.19359,0.05247
1455.22922,0.05386
1454.26486,0.05508
1453.30049,0.05621
1452.33612,0.05737
1451.37176,0.05857
1450.40739,0.05982
1449.44302,0.06089
1448.47866,0.06202
1447.51429,0.06321
1446.54992,0.06438
1445.58556,0.06554
1444.62119,0.06669
1443.65682,0.06791
1442.69246,0.06905
1441.72809,0.07015
1440.76373,0.07120
1439.79936,0.07228
1438.83499,0.07334
1437.87063,0.07424
1436.90626,0.07528
1435.94189,0.07637
1434.97753,0.07750
1434.01316,0.07853
1433.04879,0.07958
1432.08443,0.08059
1431.12006,0.08147
1430.15569,0.08243
1429.19133,0.08348
1428.22696,0.08463
1427.26259,0.08571
1426.29823,0.08674
1425.33386,0.08772
1424.36949,0.08865
1423.40513,0.08973
1422.44076,0.09085
1421.47639,0.09190
1420.51203,0.09266
1419.54766,0.09348
1418.58329,0.09453
1417.61893,0.09571
1416.65456,0.09682
1415.69019,0.09782
1414.72583,0.09881
1413.76146,0.09969
1412.79709,0.10056
1411.83273,0.10142
1410.86836,0.10221
1409.90399,0.10294
1408.93963,0.10362
1407.97526,0.10433
1407.01089,0.10497
1406.04653,0.10553
1405.08216,0.10605
1404.11779,0.10656
1403.15343,0.10711
1402.18906,0.10762
1401.22469,0.10812
1400.26033,0.10848
1399.29596,0.10874
1398.33159,0.10899
1397.36723,0.10926
1396.40286,0.10947
1395.43849,0.10949
1394.47413,0.10953
1393.50976,0.10970
1392.54539,0.10995
1391.58103,0.11010
1390.61666,0.11018
1389.65229,0.11029
1388.68793,0.11025
1387.72356,0.11005
1386.75919,0.10987
1385.79483,0.10989
1384.83046,0.11003
1383.86609,0.11010
1382.90173,0.10999
1381.93736,0.10981
1380.97299,0.10977
1380.00863,0.10978
1379.04426,0.10974
1378.07989,0.10959
1377.11553,0.10944
1376.15116,0.10927
1375.18680,0.10898
1374.22243,0.10870
1373.25806,0.10852
1372.29370,0.10847
1371.32933,0.10838
1370.36496,0.10818
1369.40060,0.10788
1368.43623,0.10755
1367.47186,0.10731
1366.50750,0.10708
1365.54313,0.10682
1364.57876,0.10643
1363.61440,0.10593
1362.65003,0.10548
1361.68566,0.10516
1360.72130,0.10492
1359.75693,0.10461
1358.79256,0.10425
1357.82820,0.10380
1356.86383,0.10331
1355.89946,0.10282
1354.93510,0.10234
1353.97073,0.10188
1353.00636,0.10137
1352.04200,0.10084
1351.07763,0.10030
1350.11326,0.09977
1349.14890,0.09923
1348.18453,0.09867
1347.22016,0.09814
1346.25580,0.09760
1345.29143,0.09703
1344.32706,0.09639
1343.36270,0.09582
1342.39833,0.09533
1341.43396,0.09482
1340.46960,0.09425
1339.50523,0.09367
1338.54086,0.09315
1337.57650,0.09265
1336.61213,0.09215
1335.64776,0.09167
1334.68340,0.09122
1333.71903,0.09075
1332.75466,0.09023
1331.79030,0.08976
1330.82593,0.08932
1329.86156,0.08892
1328.89720,0.08854
1327.93283,0.08816
1326.96846,0.08778
1326.00410,0.08737
1325.03973,0.08696
1324.07536,0.08655
1323.11100,0.08612
1322.14663,0.08568
1321.18226,0.08522
1320.21790,0.08472
1319.25353,0.08421
1318.28916,0.08375
1317.32480,0.08331
1316.36043,0.08286
1315.39606,0.08238
1314.43170,0.08185
1313.46733,0.08130
1312.50297,0.08078
1311.53860,0.08033
1310.57423,0.07990
1309.60987,0.07945
1308.64550,0.07895
1307.68113,0.07846
1306.71677,0.07803
1305.75240,0.07762
1304.78803,0.07717
1303.82367,0.07670
1302.85930,0.07630
1301.89493,0.07597
1300.93057,0.07565
1299.96620,0.07532
1299.00183,0.07498
1298.03747,0.07471
1297.07310,0.07447
1296.10873,0.07423
1295.14437,0.07404
1294.18000,0.07397
1293.21563,0.07392
1292.25127,0.07379
1291.28690,0.07364
1290.32253,0.07354
1289.35817,0.07342
1288.39380,0.07322
1287.42943,0.07304
1286.46507,0.07295
1285.50070,0.07289
1284.53633,0.07281
1283.57197,0.07274
1282.60760,0.07265
1281.64323,0.07249
1280.67887,0.07231
1279.71450,0.07216
1278.75013,0.07207
1277.78577,0.07203
1276.82140,0.07200
1275.85703,0.07194
1274.89267,0.07180
1273.92830,0.07170
1272.96393,0.07167
1271.99957,0.07170
1271.03520,0.07171
1270.07083,0.07169
1269.10647,0.07168
1268.14210,0.07168
1267.17773,0.07170
1266.21337,0.07169
1265.24900,0.07168
1264.28463,0.07169
1263.32027,0.07171
1262.35590,0.07174
1261.39153,0.07178
1260.42717,0.07180
1259.46280,0.07186
1258.49843,0.07194
1257.53407,0.07196
1256.56970,0.07195
1255.60533,0.07198
1254.64097,0.07206
1253.67660,0.07212
1252.71223,0.07218
1251.74787,0.07222
1250.78350,0.07221
1249.81914,0.07217
1248.85477,0.07213
1247.89040,0.07215
1246.92604,0.07220
1245.96167,0.07225
1244.99730,0.07229
1244.03294,0.07227
1243.06857,0.07217
1242.10420,0.07205
1241.13984,0.07200
1240.17547,0.07197
1239.21110,0.07193
1238.24674,0.07190
1237.28237,0.07186
1236.31800,0.07175
1235.35364,0.07162
1234.38927,0.07154
1233.42490,0.07146
1232.46054,0.07131
1231.49617,0.07114
1230.53180,0.07098
1229.56744,0.07085
1228.60307,0.07071
1227.63870,0.07053
1226.67434,0.07030
1225.70997,0.07006
1224.74560,0.06982
1223.78124,0.06952
1222.81687,0.06925
1221.85250,0.06901
1220.88814,0.06872
1219.92377,0.06835
1218.95940,0.06799
1217.99504,0.06767
1217.03067,0.06733
1216.06630,0.06698
1215.10194,0.06669
1214.13757,0.06639
1213.17320,0.06600
1212.20884,0.06558
1211.24447,0.06525
1210.28010,0.06495
1209.31574,0.06459
1208.35137,0.06424
1207.38700,0.06394
1206.42264,0.06363
1205.45827,0.06328
1204.49390,0.06294
1203.52954,0.06268
1202.56517,0.06244
1201.60080,0.06216
1200.63644,0.06182
1199.67207,0.06154
1198.70770,0.06131
1197.74334,0.06107
1196.77897,0.06083
1195.81460,0.06061
1194.85024,0.06038
1193.88587,0.06014
1192.92150,0.05993
1191.95714,0.05974
1190.99277,0.05954
1190.02840,0.05935
1189.06404,0.05919
1188.09967,0.05905
1187.13531,0.05892
1186.17094,0.05883
1185.20657,0.05878
1184.24221,0.05873
1183.27784,0.05865
1182.31347,0.05854
1181.34911,0.05844
1180.38474,0.05837
1179.42037,0.05833
1178.45601,0.05834
1177.49164,0.05841
1176.52727,0.05847
1175.56291,0.05842
1174.59854,0.05832
1173.63417,0.05831
1172.66981,0.05842
1171.70544,0.05850
1170.74107,0.05850
1169.77671,0.05855
1168.81234,0.05865
1167.84797,0.05872
1166.88361,0.05882
1165.91924,0.05896
1164.95487,0.05907
1163.99051,0.05915
1163.02614,0.05923
1162.06177,0.05933
1161.09741,0.05946
1160.13304,0.05957
1159.16867,0.05965
1158.20431,0.05978
1157.23994,0.05995
1156.27557,0.06010
1155.31121,0.06015
1154.34684,0.06024
1153.38247,0.06048
1152.41811,0.06079
1151.45374,0.06101
1150.48937,0.06116
1149.52501,0.06136
1148.56064,0.06164
1147.59627,0.06196
1146.63191,0.06226
1145.66754,0.06253
1144.70317,0.06281
1143.73881,0.06312
1142.77444,0.06345
1141.81007,0.06378
1140.84571,0.06409
1139.88134,0.06438
1138.91697,0.06472
1137.95261,0.06512
1136.98824,0.06553
1136.02387,0.06595
1135.05951,0.06636
1134.09514,0.06678
1133.13077,0.06724
1132.16641,0.06768
1131.20204,0.06801
1130.23767,0.06828
1129.27331,0.06868
1128.30894,0.06921
1127.34457,0.06973
1126.38021,0.07018
1125.41584,0.07055
1124.45148,0.07099
1123.48711,0.07156
1122.52274,0.07209
1121.55838,0.07251
1120.59401,0.07291
1119.62964,0.07344
1118.66528,0.07405
1117.70091,0.07460
1116.73654,0.07504
1115.77218,0.07550
1114.80781,0.07611
1113.84344,0.07672
1112.87908,0.07720
1111.91471,0.07768
1110.95034,0.07824
1109.98598,0.07884
1109.02161,0.07939
1108.05724,0.08002
1107.09288,0.08079
1106.12851,0.08148
1105.16414,0.08203
1104.19978,0.08256
1103.23541,0.08323
1102.27104,0.08403
1101.30668,0.08472
1100.34231,0.08534
1099.37794,0.08613
1098.41358,0.08711
1097.44921,0.08799
1096.48484,0.08872
1095.52048,0.08950
1094.55611,0.09035
1093.59174,0.09119
1092.62738,0.09207
1091.66301,0.09302
1090.69864,0.09393
1089.73428,0.09475
1088.76991,0.09558
1087.80554,0.09639
1086.84118,0.09716
1085.87681,0.09802
1084.91244,0.09892
1083.94808,0.09971
1082.98371,0.10034
1082.01934,0.10091
1081.05498,0.10158
1080.09061,0.10237
1079.12624,0.10315
1078.16188,0.10375
1077.19751,0.10422
1076.23314,0.10471
1075.26878,0.10522
1074.30441,0.10565
1073.34004,0.10596
1072.37568,0.10626
1071.41131,0.10655
1070.44694,0.10673
1069.48258,0.10677
1068.51821,0.10667
1067.55384,0.10649
1066.58948,0.10634
1065.62511,0.10616
1064.66074,0.10583
1063.69638,0.10544
1062.73201,0.10512
1061.76765,0.10476
1060.80328,0.10425
1059.83891,0.10357
1058.87455,0.10275
1057.91018,0.10189
1056.94581,0.10114
1055.98145,0.10044
1055.01708,0.09969
1054.05271,0.09880
1053.08835,0.09784
1052.12398,0.09685
1051.15961,0.09583
1050.19525,0.09482
1049.23088,0.09376
1048.26651,0.09263
1047.30215,0.09150
1046.33778,0.09043
1045.37341,0.08929
1044.40905,0.08801
1043.44468,0.08674
1042.48031,0.08556
1041.51595,0.08447
1040.55158,0.08339
1039.58721,0.08225
1038.62285,0.08107
1037.65848,0.07983
1036.69411,0.07858
1035.72975,0.07739
1034.76538,0.07623
1033.80101,0.07499
1032.83665,0.07371
1031.87228,0.07249
1030.90791,0.07132
1029.94355,0.07017
1028.97918,0.06902
1028.01481,0.06787
1027.05045,0.06672
1026.08608,0.06562
1025.12171,0.06457
1024.15735,0.06349
1023.19298,0.06238
1022.22861,0.06131
1021.26425,0.06036
1020.29988,0.05949
1019.33551,0.05864
1018.37115,0.05770
1017.40678,0.05670
1016.44241,0.05583
1015.47805,0.05513
1014.51368,0.05452
1013.54931,0.05395
1012.58495,0.05338
1011.62058,0.05278
1010.65621,0.05218
1009.69185,0.05177
1008.72748,0.05156
1007.76311,0.05137
1006.79875,0.05113
1005.83438,0.05087
1004.87001,0.05057
1003.90565,0.05025
1002.94128,0.05008
1001.97691,0.04999
1001.01255,0.04978
1000.04818,0.04951
999.08382,0.04935
998.11945,0.04929
997.15508,0.04919
996.19072,0.04906
995.22635,0.04893
994.26198,0.04878
993.29762,0.04862
992.33325,0.04848
991.36888,0.04839
990.40452,0.04826
989.44015,0.04806
988.47578,0.04788
987.51142,0.04771
986.54705,0.04748
985.58268,0.04716
984.61832,0.04681
983.65395,0.04653
982.68958,0.04633
981.72522,0.04609
980.76085,0.04572
979.79648,0.04527
978.83212,0.04477
977.86775,0.04424
976.90338,0.04369
975.93902,0.04318
974.97465,0.04273
974.01028,0.04228
973.04592,0.04172
972.08155,0.04108
971.11718,0.04039
970.15282,0.03965
969.18845,0.03892
968.22408,0.03832
967.25972,0.03776
966.29535,0.03716
965.33098,0.03652
964.36662,0.03585
963.40225,0.03511
962.43788,0.03439
961.47352,0.03375
960.50915,0.03308
959.54478,0.03238
958.58042,0.03169
957.61605,0.03093
956.65168,0.03010
955.68732,0.02936
954.72295,0.02879
953.75858,0.02820
952.79422,0.02753
951.82985,0.02688
950.86548,0.02629
949.90112,0.02574
948.93675,0.02516
947.97238,0.02460
947.00802,0.02408
946.04365,0.02361
945.07928,0.02310
944.11492,0.02246
943.15055,0.02187
942.18618,0.02145
941.22182,0.02106
940.25745,0.02048
939.29308,0.01985
938.32872,0.01930
937.36435,0.01881
936.39998,0.01836
935.43562,0.01795
934.47125,0.01752
933.50689,0.01701
932.54252,0.01646
931.57815,0.01588
930.61379,0.01528
929.64942,0.01471
928.68505,0.01419
927.72069,0.01371
926.75632,0.01335
925.79195,0.01306
924.82759,0.01264
923.86322,0.01202
922.89885,0.01141
921.93449,0.01094
920.97012,0.01055
920.00575,0.01014
919.04139,0.00966
918.07702,0.00917
917.11265,0.00871
916.14829,0.00829
915.18392,0.00785
914.21955,0.00737
913.25519,0.00695
912.29082,0.00668
911.32645,0.00637
910.36209,0.00594
909.39772,0.00549
908.43335,0.00505
907.46899,0.00457
906.50462,0.00417
905.54025,0.00390
904.57589,0.00365
903.61152,0.00340
902.64715,0.00317
901.68279,0.00291
900.71842,0.00261
899.75405,0.00232
898.78969,0.00208
897.82532,0.00185
896.86095,0.00158
895.89659,0.00138
894.93222,0.00128
893.96785,0.00117
893.00349,0.00100
892.03912,0.00086
891.07475,0.00075
890.11039,0.00059
889.14602,0.00046
888.18165,0.00042
887.21729,0.00041
886.25292,0.00032
885.28855,0.00021
884.32419,0.00019
883.35982,0.00024
882.39545,0.00025
881.43109,0.00017
880.46672,0.00005
879.50235,0.00002
878.53799,0.00010
877.57362,0.00015
876.60925,0.00016
875.64489,0.00028
874.68052,0.00047
873.71615,0.00061
872.75179,0.00069
871.78742,0.00075
870.82306,0.00083
869.85869,0.00095
868.89432,0.00117
867.92996,0.00148
866.96559,0.00178
866.00122,0.00199
865.03686,0.00208
864.07249,0.00221
863.10812,0.00247
862.14376,0.00271
861.17939,0.00279
860.21502,0.00289
859.25066,0.00320
858.28629,0.00355
857.32192,0.00374
856.35756,0.00377
855.39319,0.00377
854.42882,0.00382
853.46446,0.00395
852.50009,0.00419
851.53572,0.00445
850.57136,0.00466
849.60699,0.00479
848.64262,0.00483
847.67826,0.00484
846.71389,0.00496
845.74952,0.00517
844.78516,0.00527
843.82079,0.00533
842.85642,0.00545
841.89206,0.00553
840.92769,0.00547
839.96332,0.00543
838.99896,0.00558
838.03459,0.00578
837.07022,0.00586
836.10586,0.00581
835.14149,0.00583
834.17712,0.00598
833.21276,0.00607
832.24839,0.00602
831.28402,0.00593
830.31966,0.00596
829.35529,0.00607
828.39092,0.00610
827.42656,0.00605
826.46219,0.00599
825.49782,0.00599
824.53346,0.00599
823.56909,0.00593
822.60472,0.00584
821.64036,0.00577
820.67599,0.00573
819.71162,0.00566
818.74726,0.00560
817.78289,0.00558
816.81852,0.00561
815.85416,0.00566
814.88979,0.00565
813.92542,0.00555
812.96106,0.00541
811.99669,0.00530
811.03232,0.00523
810.06796,0.00520
809.10359,0.00525
808.13923,0.00532
807.17486,0.00538
806.21049,0.00540
805.24613,0.00528
804.28176,0.00507
803.31739,0.00494
802.35303,0.00491
801.38866,0.00495
800.42429,0.00505
799.45993,0.00515
798.49556,0.00519
797.53119,0.00530
796.56683,0.00545
795.60246,0.00532
794.63809,0.00495
793.67373,0.00473
792.70936,0.00481
791.74499,0.00492
790.78063,0.00491
789.81626,0.00487
788.85189,0.00490
787.88753,0.00501
786.92316,0.00512
785.95879,0.00512
784.99443,0.00506
784.03006,0.00502
783.06569,0.00508
782.10133,0.00511
781.13696,0.00498
780.17259,0.00481
779.20823,0.00476
778.24386,0.00477
777.27949,0.00471
776.31513,0.00474
775.35076,0.00495
774.38639,0.00519
773.42203,0.00525
772.45766,0.00514
771.49329,0.00506
770.52893,0.00508
769.56456,0.00519
768.60019,0.00517
767.63583,0.00500
766.67146,0.00492
765.70709,0.00505
764.74273,0.00523
763.77836,0.00529
762.81399,0.00537
761.84963,0.00549
760.88526,0.00565
759.92089,0.00578
758.95653,0.00583
757.99216,0.00588
757.02779,0.00600
756.06343,0.00620
755.09906,0.00637
754.13469,0.00647
753.17033,0.00653
752.20596,0.00661
751.24159,0.00676
750.27723,0.00695
749.31286,0.00717
748.34849,0.00736
747.38413,0.00751
746.41976,0.00765
745.45540,0.00775
744.49103,0.00791
743.52666,0.00816
742.56230,0.00847
741.59793,0.00874
740.63356,0.00895
739.66920,0.00906
738.70483,0.00906
737.74046,0.00908
736.77610,0.00926
735.81173,0.00949
734.84736,0.00956
733.88300,0.00957
732.91863,0.00971
731.95426,0.00989
730.98990,0.00999
730.02553,0.01013
729.06116,0.01035
728.09680,0.01046
727.13243,0.01053
726.16806,0.01075
725.20370,0.01108
724.23933,0.01139
723.27496,0.01162
722.31060,0.01173
721.34623,0.01172
720.38186,0.01174
719.41750,0.01194
718.45313,0.01223
717.48876,0.01242
716.52440,0.01255
715.56003,0.01281
714.59566,0.01312
713.63130,0.01331
712.66693,0.01338
711.70256,0.01350
710.73820,0.01366
709.77383,0.01379
708.80946,0.01386
707.84510,0.01395
706.88073,0.01409
705.91636,0.01422
704.95200,0.01440
703.98763,0.01458
703.02326,0.01462
702.05890,0.01456
701.09453,0.01459
700.13016,0.01485
699.16580,0.01518
698.20143,0.01535
697.23706,0.01528
696.27270,0.01514
695.30833,0.01520
694.34396,0.01539
693.37960,0.01552
692.41523,0.01552
691.45086,0.01548
690.48650,0.01551
689.52213,0.01558
688.55776,0.01566
687.59340,0.01571
686.62903,0.01579
685.66466,0.01585
684.70030,0.01584
683.73593,0.01592
682.77157,0.01610
681.80720,0.01619
680.84283,0.01615
679.87847,0.01608
678.91410,0.01606
677.94973,0.01610
676.98537,0.01625
676.02100,0.01645
675.05663,0.01654
674.09227,0.01665
673.12790,0.01693
672.16353,0.01717
671.19917,0.01714
670.23480,0.01691
669.27043,0.01630
668.30607,0.01609
667.34170,0.01660
666.37733,0.01753
665.41297,0.01796
664.44860,0.01823
663.48423,0.01840
662.51987,0.01835
661.55550,0.01826
660.59113,0.01835
659.62677,0.01861
658.66240,0.01889
657.69803,0.01913
656.73367,0.01928
655.76930,0.01927
654.80493,0.01929
653.84057,0.01952
652.87620,0.01982
651.91183,0.02001
650.94747,0.02026
649.98310,0.02055
649.01873,0.02066
648.05437,0.02072
647.09000,0.02098
646.12563,0.02130
645.16127,0.02138
644.19690,0.02131
643.23253,0.02136
642.26817,0.02152
641.30380,0.02164
640.33943,0.02172
639.37507,0.02194
638.41070,0.02223
637.44633,0.02238
636.48197,0.02243
635.51760,0.02262
634.55323,0.02282
633.58887,0.02288
632.62450,0.02304
631.66013,0.02338
630.69577,0.02352
629.73140,0.02349
628.76703,0.02371
627.80267,0.02413
626.83830,0.02432
625.87393,0.02432
624.90957,0.02447
623.94520,0.02477
622.98083,0.02497
622.01647,0.02503
621.05210,0.02505
620.08774,0.02508
619.12337,0.02516
618.15900,0.02528
617.19464,0.02536
616.23027,0.02539
615.26590,0.02545
614.30154,0.02557
613.33717,0.02571
612.37280,0.02587
611.40844,0.02604
610.44407,0.02596
609.47970,0.02569
608.51534,0.02560
607.55097,0.02569
606.58660,0.02567
605.62224,0.02562
604.65787,0.02566
603.69350,0.02564
602.72914,0.02553
601.76477,0.02540
600.80040,0.02526
599.83604,0.02521
598.87167,0.02531
597.90730,0.02542
596.94294,0.02539
595.97857,0.02523
595.01420,0.02501
594.04984,0.02485
593.08547,0.02475
592.12110,0.02474
591.15674,0.02491
590.19237,0.02508
589.22800,0.02507
588.26364,0.02494
587.29927,0.02479
586.33490,0.02469
585.37054,0.02476
584.40617,0.02499
583.44180,0.02512
582.47744,0.02513
581.51307,0.02521
580.54870,0.02538
579.58434,0.02541
578.61997,0.02515
577.65560,0.02483
576.69124,0.02470
575.72687,0.02469
574.76250,0.02465
573.79814,0.02460
572.83377,0.02463
571.86940,0.02461
570.90504,0.02445
569.94067,0.02436
568.97630,0.02451
568.01194,0.02478
567.04757,0.02491
566.08320,0.02496
565.11884,0.02512
564.15447,0.02520
563.19010,0.02480
562.22574,0.02436
561.26137,0.02462
560.29700,0.02518
559.33264,0.02518
558.36827,0.02471
557.40390,0.02434
556.43954,0.02422
555.47517,0.02434
554.51081,0.02458
553.54644,0.02480
552.58207,0.02500
551.61771,0.02497
550.65334,0.02463
549.68897,0.02434
548.72461,0.02443
547.76024,0.02470
546.79587,0.02486
545.83151,0.02480
544.86714,0.02444
543.90277,0.02416
542.93841,0.02421
541.97404,0.02431
541.00967,0.02443
540.04531,0.02469
539.08094,0.02490
538.11657,0.02465
537.15221,0.02426
536.18784,0.02408
535.22347,0.02402
534.25911,0.02404
533.29474,0.02407
532.33037,0.02408
531.36601,0.02425
530.40164,0.02449
529.43727,0.02445
528.47291,0.02414
527.50854,0.02386
526.54417,0.02356
525.57981,0.02347
524.61544,0.02389
523.65107,0.02437
522.68671,0.02427
521.72234,0.02367
520.75797,0.02320
519.79361,0.02316
518.82924,0.02329
517.86487,0.02314
516.90051,0.02275
515.93614,0.02255
514.97177,0.02281
514.00741,0.02320
513.04304,0.02326
512.07867,0.02320
511.11431,0.02332
510.14994,0.02361
509.18557,0.02379
508.22121,0.02363
507.25684,0.02362
506.29247,0.02409
505.32811,0.02438
504.36374,0.02382
503.39937,0.02291
502.43501,0.02240
501.47064,0.02236
500.50627,0.02258
499.54191,0.02268
498.57754,0.02266
497.61317,0.02281
496.64881,0.02280
495.68444,0.02257
494.72007,0.02229
493.75571,0.02183
492.79134,0.02112
491.82698,0.02046
490.86261,0.02029
489.89824,0.02068
488.93388,0.02131
487.96951,0.02147
487.00514,0.02107
486.04078,0.02120
485.07641,0.02161
484.11204,0.02122
483.14768,0.02043
482.18331,0.02029
481.21894,0.02052
480.25458,0.02025
479.29021,0.01992
478.32584,0.01974
477.36148,0.01969
476.39711,0.02009
475.43274,0.02054
474.46838,0.02029
473.50401,0.01920
472.53964,0.01833
471.57528,0.01804
470.61091,0.01800
469.64654,0.01859
468.68218,0.01959
467.71781,0.01982
466.75344,0.01887
465.78908,0.01794
464.82471,0.01783
463.86034,0.01834
462.89598,0.01906
461.93161,0.01901
460.96724,0.01838
460.00288,0.01803
459.03851,0.01774
458.07414,0.01700
457.10978,0.01610
456.14541,0.01606
455.18104,0.01673
454.21668,0.01732
453.25231,0.01753
452.28794,0.01754
451.32358,0.01766
450.35921,0.01762
449.39484,0.01709
448.43048,0.01612
447.46611,0.01577
446.50174,0.01651
445.53738,0.01691
444.57301,0.01636
443.60864,0.01594
442.64428,0.01592
441.67991,0.01535
440.71554,0.01449
439.75118,0.01468
438.78681,0.01505
437.82244,0.01434
436.85808,0.01353
435.89371,0.01359
434.92934,0.01422
433.96498,0.01469
433.00061,0.01461
432.03624,0.01383
431.07188,0.01331
430.10751,0.01366
429.14315,0.01393
428.17878,0.01329
427.21441,0.01171
426.25005,0.01046
425.28568,0.01080
424.32131,0.01195
423.35695,0.01317
422.39258,0.01393
421.42821,0.01349
420.46385,0.01106
419.49948,0.00746
418.53511,0.00574
417.57075,0.00614
416.60638,0.00701
415.64201,0.00774
414.67765,0.00893
413.71328,0.00948
412.74891,0.00857
411.78455,0.00744
410.82018,0.00680
409.85581,0.00629
408.89145,0.00693
407.92708,0.00873
406.96271,0.00932
405.99835,0.00724
405.03398,0.00487
404.06961,0.00456
403.10525,0.00381
402.14088,0.00165
401.17651,0.00056
400.21215,0.00056
399.24778,0.00056
