1900.76660,0.00187
1899.80223,0.00187
1898.83787,0.00187
1897.87350,0.00188
1896.90913,0.00188
1895.94477,0.00188
1894.98040,0.00188
1894.01603,0.00188
1893.05167,0.00189
1892.08730,0.00189
1891.12293,0.00189
1890.15857,0.00189
1889.19420,0.00189
1888.22983,0.00190
1887.26547,0.00190
1886.30110,0.00190
1885.33673,0.00190
1884.37237,0.00190
1883.40800,0.00191
1882.44364,0.00191
1881.47927,0.00191
1880.51490,0.00174
1879.55054,0.00146
1878.58617,0.00141
1877.62180,0.00163
1876.65744,0.00192
1875.69307,0.00217
1874.72870,0.00226
1873.76434,0.00206
1872.79997,0.00168
1871.83560,0.00133
1870.87124,0.00105
1869.90687,0.00063
1868.94250,0.00016
1867.97814,0.00006
1867.01377,0.00043
1866.04940,0.00100
1865.08504,0.00153
1864.12067,0.00199
1863.15630,0.00230
1862.19194,0.00244
1861.22757,0.00251
1860.26320,0.00246
1859.29884,0.00226
1858.33447,0.00215
1857.37010,0.00236
1856.40574,0.00277
1855.44137,0.00311
1854.47700,0.00325
1853.51264,0.00328
1852.54827,0.00341
1851.58390,0.00377
1850.61954,0.00411
1849.65517,0.00409
1848.69080,0.00380
1847.72644,0.00373
1846.76207,0.00398
1845.79770,0.00395
1844.83334,0.00347
1843.86897,0.00333
1842.90460,0.00413
1841.94024,0.00531
1840.97587,0.00613
1840.01150,0.00650
1839.04714,0.00662
1838.08277,0.00659
1837.11840,0.00666
1836.15404,0.00703
1835.18967,0.00759
1834.22530,0.00806
1833.26094,0.00840
1832.29657,0.00854
1831.33220,0.00831
1830.36784,0.00788
1829.40347,0.00791
1828.43910,0.00871
1827.47474,0.00951
1826.51037,0.00969
1825.54600,0.00950
1824.58164,0.00968
1823.61727,0.01031
1822.65290,0.01097
1821.68854,0.01140
1820.72417,0.01167
1819.75981,0.01190
1818.79544,0.01210
1817.83107,0.01224
1816.86671,0.01235
1815.90234,0.01249
1814.93797,0.01274
1813.97361,0.01300
1813.00924,0.01314
1812.04487,0.01316
1811.08051,0.01319
1810.11614,0.01336
1809.15177,0.01358
1808.18741,0.01380
1807.22304,0.01402
1806.25867,0.01427
1805.29431,0.01447
1804.32994,0.01462
1803.36557,0.01466
1802.40121,0.01456
1801.43684,0.01447
1800.47247,0.01455
1799.50811,0.01486
1798.54374,0.01532
1797.57937,0.01568
1796.61501,0.01587
1795.65064,0.01613
1794.68627,0.01654
1793.72191,0.01670
1792.75754,0.01656
1791.79317,0.01665
1790.82881,0.01739
1789.86444,0.01851
1788.90007,0.01955
1787.93571,0.02033
1786.97134,0.02082
1786.00697,0.02112
1785.04261,0.02149
1784.07824,0.02223
1783.11387,0.02316
1782.14951,0.02379
1781.18514,0.02414
1780.22077,0.02467
1779.25641,0.02564
1778.29204,0.02673
1777.32767,0.02757
1776.36331,0.02814
1775.39894,0.02878
1774.43457,0.02940
1773.47021,0.02958
1772.50584,0.02967
1771.54147,0.03070
1770.57711,0.03276
1769.61274,0.03464
1768.64837,0.03573
1767.68401,0.03665
1766.71964,0.03792
1765.75527,0.03929
1764.79091,0.04051
1763.82654,0.04149
1762.86217,0.04213
1761.89781,0.04272
1760.93344,0.04386
1759.96907,0.04547
1759.00471,0.04694
1758.04034,0.04790
1757.07597,0.04868
1756.11161,0.04968
1755.14724,0.05091
1754.18288,0.05213
1753.21851,0.05295
1752.25414,0.05330
1751.28978,0.05352
1750.32541,0.05420
1749.36104,0.05518
1748.39668,0.05616
1747.43231,0.05718
1746.46794,0.05839
1745.50358,0.05951
1744.53921,0.06015
1743.57484,0.06059
1742.61048,0.06130
1741.64611,0.06205
1740.68174,0.06237
1739.71738,0.06256
1738.75301,0.06337
1737.78864,0.06454
1736.82428,0.06541
1735.85991,0.06515
1734.89554,0.06396
1733.93118,0.06306
1732.96681,0.06374
1732.00244,0.06508
1731.03808,0.06568
1730.07371,0.06552
1729.10934,0.06556
1728.14498,0.06580
1727.18061,0.06590
1726.21624,0.06579
1725.25188,0.06555
1724.28751,0.06518
1723.32314,0.06477
1722.35878,0.06438
1721.39441,0.06403
1720.43004,0.06345
1719.46568,0.06209
1718.50131,0.06016
1717.53694,0.05885
1716.57258,0.05876
1715.60821,0.05881
1714.64384,0.05846
1713.67948,0.05828
1712.71511,0.05840
1711.75074,0.05808
1710.78638,0.05717
1709.82201,0.05635
1708.85764,0.05572
1707.89328,0.05474
1706.92891,0.05329
1705.96454,0.05196
1705.00018,0.05110
1704.03581,0.05062
1703.07144,0.05054
1702.10708,0.04944
1701.14271,0.04670
1700.17834,0.04373
1699.21398,0.04344
1698.24961,0.04454
1697.28524,0.04443
1696.32088,0.04256
1695.35651,0.04119
1694.39214,0.04133
1693.42778,0.04186
1692.46341,0.04167
1691.49905,0.04071
1690.53468,0.03959
1689.57031,0.03852
1688.60595,0.03767
1687.64158,0.03725
1686.67721,0.03668
1685.71285,0.03472
1684.74848,0.03165
1683.78411,0.02984
1682.81975,0.03058
1681.85538,0.03193
1680.89101,0.03212
1679.92665,0.03150
1678.96228,0.03118
1677.99791,0.03102
1677.03355,0.03023
1676.06918,0.02871
1675.10481,0.02747
1674.14045,0.02747
1673.17608,0.02776
1672.21171,0.02741
1671.24735,0.02641
1670.28298,0.02543
1669.31861,0.02480
1668.35425,0.02499
1667.38988,0.02581
1666.42551,0.02644
1665.46115,0.02646
1664.49678,0.02590
1663.53241,0.02503
1662.56805,0.02440
1661.60368,0.02458
1660.63931,0.02522
1659.67495,0.02565
1658.71058,0.02576
1657.74621,0.02580
1656.78185,0.02585
1655.81748,0.02560
1654.85311,0.02381
1653.88875,0.02112
1652.92438,0.01987
1651.96001,0.02210
1650.99565,0.02530
1650.03128,0.02705
1649.06691,0.02681
1648.10255,0.02602
1647.13818,0.02562
1646.17381,0.02625
1645.20945,0.02789
1644.24508,0.02966
1643.28071,0.03100
1642.31635,0.03183
1641.35198,0.03251
1640.38761,0.03320
1639.42325,0.03386
1638.45888,0.03450
1637.49451,0.03476
1636.53015,0.03469
1635.56578,0.03498
1634.60141,0.03674
1633.63705,0.03937
1632.67268,0.04164
1631.70831,0.04311
1630.74395,0.04429
1629.77958,0.04531
1628.81522,0.04607
1627.85085,0.04696
1626.88648,0.04843
1625.92212,0.05001
1624.95775,0.05088
1623.99338,0.05120
1623.02902,0.05206
1622.06465,0.05378
1621.10028,0.05551
1620.13592,0.05672
1619.17155,0.05742
1618.20718,0.05741
1617.24282,0.05688
1616.27845,0.05699
1615.31408,0.05840
1614.34972,0.06005
1613.38535,0.06104
1612.42098,0.06148
1611.45662,0.06179
1610.49225,0.06194
1609.52788,0.06209
1608.56352,0.06244
1607.59915,0.06293
1606.63478,0.06336
1605.67042,0.06371
1604.70605,0.06395
1603.74168,0.06412
1602.77732,0.06432
1601.81295,0.06467
1600.84858,0.06508
1599.88422,0.06549
1598.91985,0.06588
1597.95548,0.06619
1596.99112,0.06643
1596.02675,0.06670
1595.06238,0.06711
1594.09802,0.06762
1593.13365,0.06814
1592.16928,0.06854
1591.20492,0.06878
1590.24055,0.06900
1589.27618,0.06935
1588.31182,0.06975
1587.34745,0.07001
1586.38308,0.07012
1585.41872,0.07020
1584.45435,0.07029
1583.48998,0.07028
1582.52562,0.07013
1581.56125,0.06992
1580.59688,0.06962
1579.63252,0.06928
1578.66815,0.06877
1577.70378,0.06760
1576.73942,0.06591
1575.77505,0.06478
1574.81068,0.06498
1573.84632,0.06541
1572.88195,0.06522
1571.91758,0.06428
1570.95322,0.06264
1569.98885,0.06052
1569.02448,0.05909
1568.06012,0.05898
1567.09575,0.05898
1566.13139,0.05806
1565.16702,0.05651
1564.20265,0.05523
1563.23829,0.05450
1562.27392,0.05378
1561.30955,0.05179
1560.34519,0.04788
1559.38082,0.04356
1558.41645,0.04158
1557.45209,0.04251
1556.48772,0.04426
1555.52335,0.04443
1554.55899,0.04315
1553.59462,0.04193
1552.63025,0.04149
1551.66589,0.04081
1550.70152,0.03932
1549.73715,0.03770
1548.77279,0.03680
1547.80842,0.03637
1546.84405,0.03537
1545.87969,0.03353
1544.91532,0.03163
1543.95095,0.03028
1542.98659,0.02907
1542.02222,0.02741
1541.05785,0.02515
1540.09349,0.02290
1539.12912,0.02204
1538.16475,0.02308
1537.20039,0.02450
1536.23602,0.02478
1535.27165,0.02357
1534.30729,0.02175
1533.34292,0.02023
1532.37855,0.01988
1531.41419,0.02014
1530.44982,0.02010
1529.48545,0.01931
1528.52109,0.01822
1527.55672,0.01723
1526.59235,0.01639
1525.62799,0.01574
1524.66362,0.01539
1523.69925,0.01486
1522.73489,0.01342
1521.77052,0.01158
1520.80615,0.01098
1519.84179,0.01185
1518.87742,0.01253
1517.91305,0.01188
1516.94869,0.01087
1515.98432,0.01094
1515.01995,0.01180
1514.05559,0.01235
1513.09122,0.01215
1512.12685,0.01177
1511.16249,0.01150
1510.19812,0.01113
1509.23375,0.01034
1508.26939,0.00883
1507.30502,0.00718
1506.34065,0.00670
1505.37629,0.00838
1504.41192,0.01082
1503.44756,0.01239
1502.48319,0.01282
1501.51882,0.01294
1500.55446,0.01293
1499.59009,0.01280
1498.62572,0.01273
1497.66136,0.01278
1496.69699,0.01291
1495.73262,0.01341
1494.76826,0.01443
1493.80389,0.01546
1492.83952,0.01595
1491.87516,0.01570
1490.91079,0.01509
1489.94642,0.01494
1488.98206,0.01561
1488.01769,0.01647
1487.05332,0.01713
1486.08896,0.01788
1485.12459,0.01880
1484.16022,0.01952
1483.19586,0.01992
1482.23149,0.02014
1481.26712,0.02037
1480.30276,0.02082
1479.33839,0.02148
1478.37402,0.02193
1477.40966,0.02190
1476.44529,0.02180
1475.48092,0.02213
1474.51656,0.02242
1473.55219,0.02209
1472.58782,0.02181
1471.62346,0.02270
1470.65909,0.02449
1469.69472,0.02608
1468.73036,0.02705
1467.76599,0.02774
1466.80162,0.02813
1465.83726,0.02816
1464.87289,0.02833
1463.90852,0.02925
1462.94416,0.03062
1461.97979,0.03176
1461.01542,0.03238
1460.05106,0.03257
1459.08669,0.03241
1458.12232,0.03226
1457.15796,0.03256
1456.19359,0.03374
1455.22922,0.03557
1454.26486,0.03749
1453.30049,0.03893
1452.33612,0.03997
1451.37176,0.04101
1450.40739,0.04214
1449.44302,0.04311
1448.47866,0.04389
1447.51429,0.04490
1446.54992,0.04631
1445.58556,0.04776
1444.62119,0.04900
1443.65682,0.05012
1442.69246,0.05125
1441.72809,0.05236
1440.76373,0.05345
1439.79936,0.05454
1438.83499,0.05532
1437.87063,0.05558
1436.90626,0.05575
1435.94189,0.05681
1434.97753,0.05861
1434.01316,0.06027
1433.04879,0.06139
1432.08443,0.06226
1431.12006,0.06291
1430.15569,0.06344
1429.19133,0.06426
1428.22696,0.06544
1427.26259,0.06666
1426.29823,0.06757
1425.33386,0.06799
1424.36949,0.06814
1423.40513,0.06862
1422.44076,0.06972
1421.47639,0.07061
1420.51203,0.07052
1419.54766,0.06992
1418.58329,0.07006
1417.61893,0.07113
1416.65456,0.07231
1415.69019,0.07320
1414.72583,0.07389
1413.76146,0.07446
1412.79709,0.07481
1411.83273,0.07504
1410.86836,0.07524
1409.90399,0.07545
1408.93963,0.07575
1407.97526,0.07617
1407.01089,0.07656
1406.04653,0.07675
1405.08216,0.07690
1404.11779,0.07738
1403.15343,0.07816
1402.18906,0.07893
1401.22469,0.07936
1400.26033,0.07940
1399.29596,0.07934
1398.33159,0.07973
1397.36723,0.08047
1396.40286,0.08060
1395.43849,0.07983
1394.47413,0.07918
1393.50976,0.07987
1392.54539,0.08145
1391.58103,0.08281
1390.61666,0.08357
1389.65229,0.08402
1388.68793,0.08413
1387.72356,0.08392
1386.75919,0.08394
1385.79483,0.08448
1384.83046,0.08517
1383.86609,0.08566
1382.90173,0.08603
1381.93736,0.08642
1380.97299,0.08680
1380.00863,0.08710
1379.04426,0.08735
1378.07989,0.08771
1377.11553,0.08819
1376.15116,0.08853
1375.18680,0.08854
1374.22243,0.08860
1373.25806,0.08914
1372.29370,0.09009
1371.32933,0.09100
1370.36496,0.09155
1369.40060,0.09185
1368.43623,0.09214
1367.47186,0.09256
1366.50750,0.09307
1365.54313,0.09347
1364.57876,0.09357
1363.61440,0.09350
1362.65003,0.09366
1361.68566,0.09420
1360.72130,0.09489
1359.75693,0.09547
1358.79256,0.09592
1357.82820,0.09629
1356.86383,0.09659
1355.89946,0.09687
1354.93510,0.09717
1353.97073,0.09755
1353.00636,0.09796
1352.04200,0.09831
1351.07763,0.09855
1350.11326,0.09875
1349.14890,0.09898
1348.18453,0.09930
1347.22016,0.09964
1346.25580,0.09995
1345.29143,0.10021
1344.32706,0.10047
1343.36270,0.10081
1342.39833,0.10117
1341.43396,0.10136
1340.46960,0.10133
1339.50523,0.10133
1338.54086,0.10164
1337.57650,0.10216
1336.61213,0.10271
1335.64776,0.10321
1334.68340,0.10368
1333.71903,0.10411
1332.75466,0.10447
1331.79030,0.10485
1330.82593,0.10527
1329.86156,0.10569
1328.89720,0.10608
1327.93283,0.10647
1326.96846,0.10692
1326.00410,0.10737
1325.03973,0.10778
1324.07536,0.10821
1323.11100,0.10868
1322.14663,0.10915
1321.18226,0.10953
1320.21790,0.10987
1319.25353,0.11030
1318.28916,0.11088
1317.32480,0.11152
1316.36043,0.11213
1315.39606,0.11269
1314.43170,0.11321
1313.46733,0.11373
1312.50297,0.11430
1311.53860,0.11496
1310.57423,0.11562
1309.60987,0.11623
1308.64550,0.11680
1307.68113,0.11742
1306.71677,0.11809
1305.75240,0.11874
1304.78803,0.11935
1303.82367,0.11994
1302.85930,0.12051
1301.89493,0.12103
1300.93057,0.12155
1299.96620,0.12212
1299.00183,0.12271
1298.03747,0.12330
1297.07310,0.12388
1296.10873,0.12446
1295.14437,0.12502
1294.18000,0.12554
1293.21563,0.12613
1292.25127,0.12677
1291.28690,0.12736
1290.32253,0.12786
1289.35817,0.12832
1288.39380,0.12875
1287.42943,0.12920
1286.46507,0.12970
1285.50070,0.13016
1284.53633,0.13056
1283.57197,0.13095
1282.60760,0.13138
1281.64323,0.13182
1280.67887,0.13224
1279.71450,0.13262
1278.75013,0.13295
1277.78577,0.13324
1276.82140,0.13355
1275.85703,0.13390
1274.89267,0.13424
1273.92830,0.13454
1272.96393,0.13485
1271.99957,0.13518
1271.03520,0.13554
1270.07083,0.13589
1269.10647,0.13619
1268.14210,0.13639
1267.17773,0.13653
1266.21337,0.13671
1265.24900,0.13696
1264.28463,0.13725
1263.32027,0.13749
1262.35590,0.13766
1261.39153,0.13775
1260.42717,0.13778
1259.46280,0.13782
1258.49843,0.13793
1257.53407,0.13811
1256.56970,0.13828
1255.60533,0.13844
1254.64097,0.13855
1253.67660,0.13863
1252.71223,0.13871
1251.74787,0.13880
1250.78350,0.13891
1249.81914,0.13912
1248.85477,0.13950
1247.89040,0.13993
1246.92604,0.14028
1245.96167,0.14065
1244.99730,0.14113
1244.03294,0.14147
1243.06857,0.14143
1242.10420,0.14132
1241.13984,0.14163
1240.17547,0.14243
1239.21110,0.14330
1238.24674,0.14388
1237.28237,0.14422
1236.31800,0.14445
1235.35364,0.14465
1234.38927,0.14480
1233.42490,0.14497
1232.46054,0.14525
1231.49617,0.14564
1230.53180,0.14602
1229.56744,0.14634
1228.60307,0.14668
1227.63870,0.14710
1226.67434,0.14754
1225.70997,0.14788
1224.74560,0.14812
1223.78124,0.14834
1222.81687,0.14863
1221.85250,0.14895
1220.88814,0.14923
1219.92377,0.14945
1218.95940,0.14960
1217.99504,0.14968
1217.03067,0.14971
1216.06630,0.14970
1215.10194,0.14965
1214.13757,0.14958
1213.17320,0.14951
1212.20884,0.14944
1211.24447,0.14938
1210.28010,0.14934
1209.31574,0.14932
1208.35137,0.14932
1207.38700,0.14930
1206.42264,0.14925
1205.45827,0.14914
1204.49390,0.14897
1203.52954,0.14877
1202.56517,0.14860
1201.60080,0.14854
1200.63644,0.14862
1199.67207,0.14871
1198.70770,0.14874
1197.74334,0.14866
1196.77897,0.14853
1195.81460,0.14848
1194.85024,0.14860
1193.88587,0.14883
1192.92150,0.14899
1191.95714,0.14900
1190.99277,0.14898
1190.02840,0.14906
1189.06404,0.14925
1188.09967,0.14943
1187.13531,0.14958
1186.17094,0.14974
1185.20657,0.14992
1184.24221,0.15012
1183.27784,0.15031
1182.31347,0.15051
1181.34911,0.15071
1180.38474,0.15086
1179.42037,0.15096
1178.45601,0.15105
1177.49164,0.15118
1176.52727,0.15137
1175.56291,0.15159
1174.59854,0.15170
1173.63417,0.15168
1172.66981,0.15160
1171.70544,0.15153
1170.74107,0.15148
1169.77671,0.15147
1168.81234,0.15147
1167.84797,0.15139
1166.88361,0.15119
1165.91924,0.15092
1164.95487,0.15067
1163.99051,0.15040
1163.02614,0.15010
1162.06177,0.14980
1161.09741,0.14959
1160.13304,0.14944
1159.16867,0.14921
1158.20431,0.14884
1157.23994,0.14835
1156.27557,0.14785
1155.31121,0.14740
1154.34684,0.14698
1153.38247,0.14656
1152.41811,0.14605
1151.45374,0.14544
1150.48937,0.14487
1149.52501,0.14451
1148.56064,0.14427
1147.59627,0.14393
1146.63191,0.14343
1145.66754,0.14286
1144.70317,0.14226
1143.73881,0.14171
1142.77444,0.14135
1141.81007,0.14114
1140.84571,0.14087
1139.88134,0.14049
1138.91697,0.14010
1137.95261,0.13977
1136.98824,0.13941
1136.02387,0.13895
1135.05951,0.13847
1134.09514,0.13813
1133.13077,0.13794
1132.16641,0.13779
1131.20204,0.13760
1130.23767,0.13742
1129.27331,0.13728
1128.30894,0.13716
1127.34457,0.13702
1126.38021,0.13692
1125.41584,0.13691
1124.45148,0.13691
1123.48711,0.13680
1122.52274,0.13669
1121.55838,0.13667
1120.59401,0.13666
1119.62964,0.13657
1118.66528,0.13643
1117.70091,0.13637
1116.73654,0.13643
1115.77218,0.13650
1114.80781,0.13654
1113.84344,0.13665
1112.87908,0.13695
1111.91471,0.13734
1110.95034,0.13760
1109.98598,0.13766
1109.02161,0.13763
1108.05724,0.13767
1107.09288,0.13788
1106.12851,0.13829
1105.16414,0.13880
1104.19978,0.13924
1103.23541,0.13951
1102.27104,0.13974
1101.30668,0.14009
1100.34231,0.14058
1099.37794,0.14120
1098.41358,0.14187
1097.44921,0.14256
1096.48484,0.14322
1095.52048,0.14384
1094.55611,0.14438
1093.59174,0.14491
1092.62738,0.14550
1091.66301,0.14606
1090.69864,0.14641
1089.73428,0.14662
1088.76991,0.14693
1087.80554,0.14744
1086.84118,0.14814
1085.87681,0.14897
1084.91244,0.14972
1083.94808,0.15021
1082.98371,0.15057
1082.01934,0.15103
1081.05498,0.15159
1080.09061,0.15216
1079.12624,0.15271
1078.16188,0.15326
1077.19751,0.15384
1076.23314,0.15451
1075.26878,0.15539
1074.30441,0.15659
1073.34004,0.15799
1072.37568,0.15933
1071.41131,0.16062
1070.44694,0.16204
1069.48258,0.16336
1068.51821,0.16407
1067.55384,0.16427
1066.58948,0.16478
1065.62511,0.16629
1064.66074,0.16861
1063.69638,0.17098
1062.73201,0.17293
1061.76765,0.17455
1060.80328,0.17594
1059.83891,0.17687
1058.87455,0.17735
1057.91018,0.17800
1056.94581,0.17926
1055.98145,0.18083
1055.01708,0.18216
1054.05271,0.18304
1053.08835,0.18355
1052.12398,0.18388
1051.15961,0.18412
1050.19525,0.18419
1049.23088,0.18401
1048.26651,0.18352
1047.30215,0.18275
1046.33778,0.18180
1045.37341,0.18077
1044.40905,0.17968
1043.44468,0.17849
1042.48031,0.17717
1041.51595,0.17574
1040.55158,0.17414
1039.58721,0.17223
1038.62285,0.17010
1037.65848,0.16809
1036.69411,0.16636
1035.72975,0.16474
1034.76538,0.16303
1033.80101,0.16116
1032.83665,0.15919
1031.87228,0.15721
1030.90791,0.15523
1029.94355,0.15297
1028.97918,0.15018
1028.01481,0.14726
1027.05045,0.14499
1026.08608,0.14341
1025.12171,0.14188
1024.15735,0.14006
1023.19298,0.13816
1022.22861,0.13629
1021.26425,0.13432
1020.29988,0.13233
1019.33551,0.13040
1018.37115,0.12852
1017.40678,0.12679
1016.44241,0.12530
1015.47805,0.12393
1014.51368,0.12249
1013.54931,0.12107
1012.58495,0.11983
1011.62058,0.11871
1010.65621,0.11766
1009.69185,0.11672
1008.72748,0.11589
1007.76311,0.11502
1006.79875,0.11410
1005.83438,0.11332
1004.87001,0.11275
1003.90565,0.11222
1002.94128,0.11158
1001.97691,0.11092
1001.01255,0.11038
1000.04818,0.10994
999.08382,0.10956
998.11945,0.10918
997.15508,0.10876
996.19072,0.10832
995.22635,0.10794
994.26198,0.10766
993.29762,0.10744
992.33325,0.10718
991.36888,0.10677
990.40452,0.10623
989.44015,0.10571
988.47578,0.10526
987.51142,0.10486
986.54705,0.10444
985.58268,0.10396
984.61832,0.10341
983.65395,0.10285
982.68958,0.10233
981.72522,0.10179
980.76085,0.10115
979.79648,0.10049
978.83212,0.09990
977.86775,0.09933
976.90338,0.09866
975.93902,0.09790
974.97465,0.09716
974.01028,0.09650
973.04592,0.09581
972.08155,0.09500
971.11718,0.09414
970.15282,0.09340
969.18845,0.09277
968.22408,0.09208
967.25972,0.09122
966.29535,0.09031
965.33098,0.08948
964.36662,0.08869
963.40225,0.08784
962.43788,0.08693
961.47352,0.08600
960.50915,0.08507
959.54478,0.08414
958.58042,0.08328
957.61605,0.08251
956.65168,0.08176
955.68732,0.08097
954.72295,0.08015
953.75858,0.07933
952.79422,0.07848
951.82985,0.07762
950.86548,0.07678
949.90112,0.07597
948.93675,0.07518
947.97238,0.07443
947.00802,0.07367
946.04365,0.07283
945.07928,0.07200
944.11492,0.07135
943.15055,0.07079
942.18618,0.07010
941.22182,0.06932
940.25745,0.06855
939.29308,0.06776
938.32872,0.06690
937.36435,0.06610
936.39998,0.06547
935.43562,0.06494
934.47125,0.06433
933.50689,0.06361
932.54252,0.06286
931.57815,0.06215
930.61379,0.06150
929.64942,0.06083
928.68505,0.06004
927.72069,0.05919
926.75632,0.05845
925.79195,0.05786
924.82759,0.05736
923.86322,0.05687
922.89885,0.05630
921.93449,0.05566
920.97012,0.05509
920.00575,0.05465
919.04139,0.05427
918.07702,0.05380
917.11265,0.05326
916.14829,0.05281
915.18392,0.05245
914.21955,0.05205
913.25519,0.05157
912.29082,0.05112
911.32645,0.05081
910.36209,0.05061
909.39772,0.05045
908.43335,0.05027
907.46899,0.05008
906.50462,0.04992
905.54025,0.04974
904.57589,0.04949
903.61152,0.04924
902.64715,0.04910
901.68279,0.04903
900.71842,0.04897
899.75405,0.04899
898.78969,0.04907
897.82532,0.04916
896.86095,0.04923
895.89659,0.04936
894.93222,0.04953
893.96785,0.04962
893.00349,0.04964
892.03912,0.04976
891.07475,0.05003
890.11039,0.05036
889.14602,0.05066
888.18165,0.05087
887.21729,0.05098
886.25292,0.05109
885.28855,0.05127
884.32419,0.05147
883.35982,0.05166
882.39545,0.05187
881.43109,0.05196
880.46672,0.05184
879.50235,0.05176
878.53799,0.05200
877.57362,0.05242
876.60925,0.05273
875.64489,0.05283
874.68052,0.05279
873.71615,0.05271
872.75179,0.05275
871.78742,0.05296
870.82306,0.05321
869.85869,0.05337
868.89432,0.05340
867.92996,0.05337
866.96559,0.05334
866.00122,0.05329
865.03686,0.05317
864.07249,0.05311
863.10812,0.05319
862.14376,0.05324
861.17939,0.05309
860.21502,0.05288
859.25066,0.05277
858.28629,0.05270
857.32192,0.05259
856.35756,0.05247
855.39319,0.05232
854.42882,0.05211
853.46446,0.05187
852.50009,0.05162
851.53572,0.05133
850.57136,0.05101
849.60699,0.05069
848.64262,0.05039
847.67826,0.05014
846.71389,0.04989
845.74952,0.04954
844.78516,0.04904
843.82079,0.04853
842.85642,0.04816
841.89206,0.04790
840.92769,0.04755
839.96332,0.04705
838.99896,0.04649
838.03459,0.04597
837.07022,0.04548
836.10586,0.04498
835.14149,0.04442
834.17712,0.04380
833.21276,0.04323
832.24839,0.04282
831.28402,0.04247
830.31966,0.04202
829.35529,0.04144
828.39092,0.04081
827.42656,0.04020
826.46219,0.03959
825.49782,0.03905
824.53346,0.03865
823.56909,0.03836
822.60472,0.03804
821.64036,0.03765
820.67599,0.03726
819.71162,0.03689
818.74726,0.03646
817.78289,0.03600
816.81852,0.03560
815.85416,0.03527
814.88979,0.03498
813.92542,0.03468
812.96106,0.03432
811.99669,0.03389
811.03232,0.03351
810.06796,0.03327
809.10359,0.03311
808.13923,0.03286
807.17486,0.03245
806.21049,0.03198
805.24613,0.03151
804.28176,0.03101
803.31739,0.03054
802.35303,0.03019
801.38866,0.02994
800.42429,0.02960
799.45993,0.02912
798.49556,0.02868
797.53119,0.02840
796.56683,0.02821
795.60246,0.02798
794.63809,0.02769
793.67373,0.02738
792.70936,0.02704
791.74499,0.02672
790.78063,0.02647
789.81626,0.02632
788.85189,0.02618
787.88753,0.02597
786.92316,0.02572
785.95879,0.02542
784.99443,0.02507
784.03006,0.02472
783.06569,0.02448
782.10133,0.02439
781.13696,0.02433
780.17259,0.02415
779.20823,0.02392
778.24386,0.02373
777.27949,0.02365
776.31513,0.02365
775.35076,0.02362
774.38639,0.02348
773.42203,0.02330
772.45766,0.02325
771.49329,0.02334
770.52893,0.02338
769.56456,0.02325
768.60019,0.02306
767.63583,0.02299
766.67146,0.02305
765.70709,0.02312
764.74273,0.02316
763.77836,0.02319
762.81399,0.02313
761.84963,0.02291
760.88526,0.02266
759.92089,0.02255
758.95653,0.02258
757.99216,0.02262
757.02779,0.02263
756.06343,0.02259
755.09906,0.02251
754.13469,0.02246
753.17033,0.02245
752.20596,0.02234
751.24159,0.02217
750.27723,0.02211
749.31286,0.02216
748.34849,0.02217
747.38413,0.02216
746.41976,0.02217
745.45540,0.02213
744.49103,0.02210
743.52666,0.02215
742.56230,0.02223
741.59793,0.02223
740.63356,0.02220
739.66920,0.02222
738.70483,0.02229
737.74046,0.02238
736.77610,0.02245
735.81173,0.02253
734.84736,0.02262
733.88300,0.02267
732.91863,0.02265
731.95426,0.02269
730.98990,0.02285
730.02553,0.02298
729.06116,0.02299
728.09680,0.02301
727.13243,0.02314
726.16806,0.02333
725.20370,0.02344
724.23933,0.02350
723.27496,0.02349
722.31060,0.02332
721.34623,0.02304
720.38186,0.02297
719.41750,0.02329
718.45313,0.02366
717.48876,0.02382
716.52440,0.02384
715.56003,0.02388
714.59566,0.02398
713.63130,0.02409
712.66693,0.02415
711.70256,0.02416
710.73820,0.02423
709.77383,0.02440
708.80946,0.02449
707.84510,0.02442
706.88073,0.02433
705.91636,0.02441
704.95200,0.02452
703.98763,0.02449
703.02326,0.02438
702.05890,0.02441
701.09453,0.02451
700.13016,0.02456
699.16580,0.02458
698.20143,0.02461
697.23706,0.02461
696.27270,0.02465
695.30833,0.02475
694.34396,0.02476
693.37960,0.02461
692.41523,0.02443
691.45086,0.02428
690.48650,0.02410
689.52213,0.02394
688.55776,0.02391
687.59340,0.02398
686.62903,0.02397
685.66466,0.02381
684.70030,0.02364
683.73593,0.02369
682.77157,0.02393
681.80720,0.02409
680.84283,0.02400
679.87847,0.02383
678.91410,0.02373
677.94973,0.02373
676.98537,0.02386
676.02100,0.02409
675.05663,0.02431
674.09227,0.02446
673.12790,0.02465
672.16353,0.02490
671.19917,0.02488
670.23480,0.02288
669.27043,0.01946
668.30607,0.01769
667.34170,0.02034
666.37733,0.02427
665.41297,0.02630
664.44860,0.02604
663.48423,0.02549
662.51987,0.02523
661.55550,0.02529
660.59113,0.02548
659.62677,0.02562
658.66240,0.02566
657.69803,0.02570
656.73367,0.02573
655.76930,0.02568
654.80493,0.02557
653.84057,0.02559
652.87620,0.02583
651.91183,0.02612
650.94747,0.02621
649.98310,0.02610
649.01873,0.02605
648.05437,0.02627
647.09000,0.02671
646.12563,0.02715
645.16127,0.02746
644.19690,0.02762
643.23253,0.02772
642.26817,0.02783
641.30380,0.02802
640.33943,0.02831
639.37507,0.02864
638.41070,0.02887
637.44633,0.02891
636.48197,0.02894
635.51760,0.02914
634.55323,0.02938
633.58887,0.02946
632.62450,0.02950
631.66013,0.02972
630.69577,0.03010
629.73140,0.03043
628.76703,0.03064
627.80267,0.03081
626.83830,0.03099
625.87393,0.03113
624.90957,0.03130
623.94520,0.03156
622.98083,0.03182
622.01647,0.03199
621.05210,0.03224
620.08774,0.03260
619.12337,0.03271
618.15900,0.03257
617.19464,0.03272
616.23027,0.03348
615.26590,0.03446
614.30154,0.03509
613.33717,0.03531
612.37280,0.03544
611.40844,0.03571
610.44407,0.03619
609.47970,0.03688
608.51534,0.03761
607.55097,0.03821
606.58660,0.03866
605.62224,0.03911
604.65787,0.03969
603.69350,0.04036
602.72914,0.04099
601.76477,0.04151
600.80040,0.04196
599.83604,0.04240
598.87167,0.04286
597.90730,0.04344
596.94294,0.04428
595.97857,0.04534
595.01420,0.04630
594.04984,0.04693
593.08547,0.04730
592.12110,0.04773
591.15674,0.04847
590.19237,0.04936
589.22800,0.05014
588.26364,0.05081
587.29927,0.05144
586.33490,0.05194
585.37054,0.05237
584.40617,0.05290
583.44180,0.05342
582.47744,0.05359
581.51307,0.05343
580.54870,0.05331
579.58434,0.05339
578.61997,0.05347
577.65560,0.05318
576.69124,0.05249
575.72687,0.05171
574.76250,0.05110
573.79814,0.05057
572.83377,0.04999
571.86940,0.04923
570.90504,0.04813
569.94067,0.04687
568.97630,0.04591
568.01194,0.04528
567.04757,0.04461
566.08320,0.04373
565.11884,0.04279
564.15447,0.04184
563.19010,0.04086
562.22574,0.03993
561.26137,0.03910
560.29700,0.03840
559.33264,0.03780
558.36827,0.03729
557.40390,0.03682
556.43954,0.03630
555.47517,0.03570
554.51081,0.03520
553.54644,0.03491
552.58207,0.03458
551.61771,0.03389
550.65334,0.03306
549.68897,0.03258
548.72461,0.03259
547.76024,0.03271
546.79587,0.03249
545.83151,0.03201
544.86714,0.03155
543.90277,0.03127
542.93841,0.03117
541.97404,0.03126
541.00967,0.03142
540.04531,0.03141
539.08094,0.03126
538.11657,0.03099
537.15221,0.03042
536.18784,0.02964
535.22347,0.02912
534.25911,0.02900
533.29474,0.02878
532.33037,0.02838
531.36601,0.02827
530.40164,0.02855
529.43727,0.02858
528.47291,0.02796
527.50854,0.02715
526.54417,0.02682
525.57981,0.02703
524.61544,0.02733
523.65107,0.02732
522.68671,0.02717
521.72234,0.02714
520.75797,0.02720
519.79361,0.02708
518.82924,0.02667
517.86487,0.02602
516.90051,0.02552
515.93614,0.02546
514.97177,0.02539
514.00741,0.02496
513.04304,0.02478
512.07867,0.02532
511.11431,0.02593
510.14994,0.02587
509.18557,0.02532
508.22121,0.02464
507.25684,0.02406
506.29247,0.02378
505.32811,0.02378
504.36374,0.02368
503.39937,0.02336
502.43501,0.02307
501.47064,0.02290
500.50627,0.02277
499.54191,0.02264
498.57754,0.02263
497.61317,0.02261
496.64881,0.02245
495.68444,0.02242
494.72007,0.02261
493.75571,0.02264
492.79134,0.02232
491.82698,0.02217
490.86261,0.02231
489.89824,0.02223
488.93388,0.02192
487.96951,0.02178
487.00514,0.02182
486.04078,0.02158
485.07641,0.02116
484.11204,0.02100
483.14768,0.02118
482.18331,0.02127
481.21894,0.02085
480.25458,0.02003
479.29021,0.01936
478.32584,0.01941
477.36148,0.01986
476.39711,0.01976
475.43274,0.01916
474.46838,0.01865
473.50401,0.01839
472.53964,0.01821
471.57528,0.01855
470.61091,0.01961
469.64654,0.02049
468.68218,0.02032
467.71781,0.01940
466.75344,0.01897
465.78908,0.01944
464.82471,0.01999
463.86034,0.01982
462.89598,0.01912
461.93161,0.01882
460.96724,0.01938
460.00288,0.01989
459.03851,0.01946
458.07414,0.01881
457.10978,0.01925
456.14541,0.02022
455.18104,0.02028
454.21668,0.01929
453.25231,0.01843
452.28794,0.01821
451.32358,0.01824
450.35921,0.01820
449.39484,0.01780
448.43048,0.01668
447.46611,0.01515
446.50174,0.01436
445.53738,0.01485
444.57301,0.01595
443.60864,0.01684
442.64428,0.01715
441.67991,0.01678
440.71554,0.01578
439.75118,0.01482
438.78681,0.01459
437.82244,0.01506
436.85808,0.01558
435.89371,0.01558
434.92934,0.01516
433.96498,0.01468
433.00061,0.01415
432.03624,0.01338
431.07188,0.01281
430.10751,0.01288
429.14315,0.01295
428.17878,0.01245
427.21441,0.01183
426.25005,0.01150
425.28568,0.01086
424.32131,0.00943
423.35695,0.00791
422.39258,0.00726
421.42821,0.00720
420.46385,0.00683
419.49948,0.00627
418.53511,0.00667
417.57075,0.00785
416.60638,0.00877
415.64201,0.00887
414.67765,0.00880
413.71328,0.00910
412.74891,0.00922
411.78455,0.00808
410.82018,0.00580
409.85581,0.00371
408.89145,0.00226
407.92708,0.00096
406.96271,0.00018
405.99835,0.00084
405.03398,0.00230
404.06961,0.00281
403.10525,0.00203
402.14088,0.00102
401.17651,0.00051
400.21215,0.00051
399.24778,0.00051
