1900.76660,0.00159
1899.80223,0.00155
1898.83787,0.00151
1897.87350,0.00147
1896.90913,0.00144
1895.94477,0.00140
1894.98040,0.00136
1894.01603,0.00132
1893.05167,0.00128
1892.08730,0.00124
1891.12293,0.00120
1890.15857,0.00117
1889.19420,0.00113
1888.22983,0.00109
1887.26547,0.00105
1886.30110,0.00101
1885.33673,0.00097
1884.37237,0.00094
1883.40800,0.00090
1882.44364,0.00086
1881.47927,0.00082
1880.51490,0.00091
1879.55054,0.00107
1878.58617,0.00121
1877.62180,0.00108
1876.65744,0.00091
1875.69307,0.00096
1874.72870,0.00111
1873.76434,0.00108
1872.79997,0.00102
1871.83560,0.00097
1870.87124,0.00059
1869.90687,0.00014
1868.94250,0.00016
1867.97814,0.00058
1867.01377,0.00081
1866.04940,0.00088
1865.08504,0.00117
1864.12067,0.00140
1863.15630,0.00142
1862.19194,0.00143
1861.22757,0.00154
1860.26320,0.00158
1859.29884,0.00155
1858.33447,0.00161
1857.37010,0.00156
1856.40574,0.00140
1855.44137,0.00135
1854.47700,0.00154
1853.51264,0.00176
1852.54827,0.00177
1851.58390,0.00163
1850.61954,0.00142
1849.65517,0.00136
1848.69080,0.00154
1847.72644,0.00189
1846.76207,0.00209
1845.79770,0.00194
1844.83334,0.00171
1843.86897,0.00180
1842.90460,0.00228
1841.94024,0.00262
1840.97587,0.00267
1840.01150,0.00272
1839.04714,0.00278
1838.08277,0.00272
1837.11840,0.00271
1836.15404,0.00302
1835.18967,0.00339
1834.22530,0.00362
1833.26094,0.00383
1832.29657,0.00409
1831.33220,0.00411
1830.36784,0.00395
1829.40347,0.00423
1828.43910,0.00483
1827.47474,0.00519
1826.51037,0.00507
1825.54600,0.00486
1824.58164,0.00493
1823.61727,0.00524
1822.65290,0.00565
1821.68854,0.00594
1820.72417,0.00620
1819.75981,0.00638
1818.79544,0.00638
1817.83107,0.00630
1816.86671,0.00636
1815.90234,0.00657
1814.93797,0.00672
1813.97361,0.00685
1813.00924,0.00699
1812.04487,0.00701
1811.08051,0.00697
1810.11614,0.00705
1809.15177,0.00728
1808.18741,0.00750
1807.22304,0.00771
1806.25867,0.00781
1805.29431,0.00779
1804.32994,0.00775
1803.36557,0.00774
1802.40121,0.00768
1801.43684,0.00761
1800.47247,0.00774
1799.50811,0.00807
1798.54374,0.00841
1797.57937,0.00856
1796.61501,0.00856
1795.65064,0.00866
1794.68627,0.00884
1793.72191,0.00881
1792.75754,0.00859
1791.79317,0.00864
1790.82881,0.00912
1789.86444,0.00972
1788.90007,0.01021
1787.93571,0.01059
1786.97134,0.01086
1786.00697,0.01093
1785.04261,0.01107
1784.07824,0.01149
1783.11387,0.01204
1782.14951,0.01238
1781.18514,0.01254
1780.22077,0.01287
1779.25641,0.01342
1778.29204,0.01405
1777.32767,0.01452
1776.36331,0.01490
1775.39894,0.01535
1774.43457,0.01583
1773.47021,0.01599
1772.50584,0.01588
1771.54147,0.01626
1770.57711,0.01731
1769.61274,0.01847
1768.64837,0.01931
1767.68401,0.02004
1766.71964,0.02084
1765.75527,0.02163
1764.79091,0.02239
1763.82654,0.02299
1762.86217,0.02329
1761.89781,0.02364
1760.93344,0.02445
1759.96907,0.02554
1759.00471,0.02640
1758.04034,0.02703
1757.07597,0.02758
1756.11161,0.02831
1755.14724,0.02920
1754.18288,0.03004
1753.21851,0.03065
1752.25414,0.03105
1751.28978,0.03154
1750.32541,0.03215
1749.36104,0.03278
1748.39668,0.03327
1747.43231,0.03387
1746.46794,0.03466
1745.50358,0.03539
1744.53921,0.03592
1743.57484,0.03630
1742.61048,0.03683
1741.64611,0.03744
1740.68174,0.03779
1739.71738,0.03801
1738.75301,0.03846
1737.78864,0.03907
1736.82428,0.03939
1735.85991,0.03938
1734.89554,0.03871
1733.93118,0.03824
1732.96681,0.03859
1732.00244,0.03953
1731.03808,0.03987
1730.07371,0.03971
1729.10934,0.03961
1728.14498,0.03964
1727.18061,0.03965
1726.21624,0.03957
1725.25188,0.03939
1724.28751,0.03906
1723.32314,0.03871
1722.35878,0.03852
1721.39441,0.03830
1720.43004,0.03802
1719.46568,0.03740
1718.50131,0.03634
1717.53694,0.03563
1716.57258,0.03554
1715.60821,0.03557
1714.64384,0.03512
1713.67948,0.03480
1712.71511,0.03468
1711.75074,0.03441
1710.78638,0.03389
1709.82201,0.03340
1708.85764,0.03304
1707.89328,0.03252
1706.92891,0.03182
1705.96454,0.03113
1705.00018,0.03056
1704.03581,0.03019
1703.07144,0.02999
1702.10708,0.02977
1701.14271,0.02819
1700.17834,0.02688
1699.21398,0.02674
1698.24961,0.02765
1697.28524,0.02750
1696.32088,0.02660
1695.35651,0.02602
1694.39214,0.02620
1693.42778,0.02667
1692.46341,0.02662
1691.49905,0.02632
1690.53468,0.02590
1689.57031,0.02557
1688.60595,0.02548
1687.64158,0.02553
1686.67721,0.02555
1685.71285,0.02494
1684.74848,0.02376
1683.78411,0.02324
1682.81975,0.02398
1681.85538,0.02502
1680.89101,0.02533
1679.92665,0.02551
1678.96228,0.02580
1677.99791,0.02612
1677.03355,0.02620
1676.06918,0.02596
1675.10481,0.02596
1674.14045,0.02657
1673.17608,0.02743
1672.21171,0.02774
1671.24735,0.02792
1670.28298,0.02806
1669.31861,0.02836
1668.35425,0.02900
1667.38988,0.02999
1666.42551,0.03083
1665.46115,0.03146
1664.49678,0.03203
1663.53241,0.03234
1662.56805,0.03272
1661.60368,0.03345
1660.63931,0.03442
1659.67495,0.03527
1658.71058,0.03600
1657.74621,0.03666
1656.78185,0.03724
1655.81748,0.03782
1654.85311,0.03805
1653.88875,0.03744
1652.92438,0.03749
1651.96001,0.03880
1650.99565,0.04081
1650.03128,0.04195
1649.06691,0.04258
1648.10255,0.04279
1647.13818,0.04309
1646.17381,0.04387
1645.20945,0.04510
1644.24508,0.04644
1643.28071,0.04749
1642.31635,0.04833
1641.35198,0.04903
1640.38761,0.04984
1639.42325,0.05072
1638.45888,0.05146
1637.49451,0.05208
1636.53015,0.05236
1635.56578,0.05271
1634.60141,0.05358
1633.63705,0.05509
1632.67268,0.05644
1631.70831,0.05730
1630.74395,0.05798
1629.77958,0.05871
1628.81522,0.05923
1627.85085,0.05954
1626.88648,0.05996
1625.92212,0.06063
1624.95775,0.06111
1623.99338,0.06091
1623.02902,0.06083
1622.06465,0.06126
1621.10028,0.06188
1620.13592,0.06204
1619.17155,0.06201
1618.20718,0.06199
1617.24282,0.06120
1616.27845,0.06044
1615.31408,0.06034
1614.34972,0.06081
1613.38535,0.06077
1612.42098,0.06043
1611.45662,0.06018
1610.49225,0.05982
1609.52788,0.05948
1608.56352,0.05923
1607.59915,0.05908
1606.63478,0.05890
1605.67042,0.05875
1604.70605,0.05869
1603.74168,0.05859
1602.77732,0.05853
1601.81295,0.05854
1600.84858,0.05862
1599.88422,0.05871
1598.91985,0.05881
1597.95548,0.05886
1596.99112,0.05884
1596.02675,0.05890
1595.06238,0.05899
1594.09802,0.05916
1593.13365,0.05934
1592.16928,0.05945
1591.20492,0.05942
1590.24055,0.05933
1589.27618,0.05935
1588.31182,0.05938
1587.34745,0.05941
1586.38308,0.05928
1585.41872,0.05905
1584.45435,0.05878
1583.48998,0.05848
1582.52562,0.05817
1581.56125,0.05773
1580.59688,0.05728
1579.63252,0.05672
1578.66815,0.05617
1577.70378,0.05551
1576.73942,0.05414
1575.77505,0.05292
1574.81068,0.05241
1573.84632,0.05248
1572.88195,0.05191
1571.91758,0.05116
1570.95322,0.05010
1569.98885,0.04842
1569.02448,0.04705
1568.06012,0.04644
1567.09575,0.04620
1566.13139,0.04530
1565.16702,0.04409
1564.20265,0.04298
1563.23829,0.04210
1562.27392,0.04143
1561.30955,0.04041
1560.34519,0.03841
1559.38082,0.03590
1558.41645,0.03442
1557.45209,0.03452
1556.48772,0.03498
1555.52335,0.03477
1554.55899,0.03376
1553.59462,0.03289
1552.63025,0.03245
1551.66589,0.03200
1550.70152,0.03095
1549.73715,0.02988
1548.77279,0.02922
1547.80842,0.02882
1546.84405,0.02830
1545.87969,0.02725
1544.91532,0.02617
1543.95095,0.02538
1542.98659,0.02465
1542.02222,0.02384
1541.05785,0.02284
1540.09349,0.02168
1539.12912,0.02086
1538.16475,0.02109
1537.20039,0.02164
1536.23602,0.02159
1535.27165,0.02105
1534.30729,0.02001
1533.34292,0.01918
1532.37855,0.01885
1531.41419,0.01895
1530.44982,0.01881
1529.48545,0.01845
1528.52109,0.01792
1527.55672,0.01739
1526.59235,0.01698
1525.62799,0.01652
1524.66362,0.01629
1523.69925,0.01610
1522.73489,0.01546
1521.77052,0.01462
1520.80615,0.01429
1519.84179,0.01476
1518.87742,0.01510
1517.91305,0.01475
1516.94869,0.01420
1515.98432,0.01413
1515.01995,0.01453
1514.05559,0.01472
1513.09122,0.01469
1512.12685,0.01449
1511.16249,0.01438
1510.19812,0.01421
1509.23375,0.01375
1508.26939,0.01305
1507.30502,0.01217
1506.34065,0.01204
1505.37629,0.01286
1504.41192,0.01410
1503.44756,0.01465
1502.48319,0.01478
1501.51882,0.01486
1500.55446,0.01496
1499.59009,0.01493
1498.62572,0.01488
1497.66136,0.01490
1496.69699,0.01495
1495.73262,0.01520
1494.76826,0.01573
1493.80389,0.01623
1492.83952,0.01649
1491.87516,0.01647
1490.91079,0.01628
1489.94642,0.01635
1488.98206,0.01688
1488.01769,0.01743
1487.05332,0.01778
1486.08896,0.01820
1485.12459,0.01869
1484.16022,0.01914
1483.19586,0.01947
1482.23149,0.01977
1481.26712,0.02011
1480.30276,0.02057
1479.33839,0.02113
1478.37402,0.02155
1477.40966,0.02176
1476.44529,0.02202
1475.48092,0.02258
1474.51656,0.02315
1473.55219,0.02328
1472.58782,0.02341
1471.62346,0.02413
1470.65909,0.02533
1469.69472,0.02634
1468.73036,0.02706
1467.76599,0.02766
1466.80162,0.02816
1465.83726,0.02845
1464.87289,0.02883
1463.90852,0.02961
1462.94416,0.03048
1461.97979,0.03122
1461.01542,0.03180
1460.05106,0.03218
1459.08669,0.03242
1458.12232,0.03252
1457.15796,0.03290
1456.19359,0.03362
1455.22922,0.03481
1454.26486,0.03599
1453.30049,0.03689
1452.33612,0.03755
1451.37176,0.03818
1450.40739,0.03893
1449.44302,0.03952
1448.47866,0.04000
1447.51429,0.04061
1446.54992,0.04147
1445.58556,0.04238
1444.62119,0.04312
1443.65682,0.04381
1442.69246,0.04444
1441.72809,0.04510
1440.76373,0.04575
1439.79936,0.04637
1438.83499,0.04698
1437.87063,0.04726
1436.90626,0.04739
1435.94189,0.04786
1434.97753,0.04887
1434.01316,0.04979
1433.04879,0.05042
1432.08443,0.05099
1431.12006,0.05138
1430.15569,0.05164
1429.19133,0.05212
1428.22696,0.05290
1427.26259,0.05361
1426.29823,0.05418
1425.33386,0.05459
1424.36949,0.05480
1423.40513,0.05514
1422.44076,0.05578
1421.47639,0.05653
1420.51203,0.05669
1419.54766,0.05652
1418.58329,0.05668
1417.61893,0.05737
1416.65456,0.05813
1415.69019,0.05862
1414.72583,0.05912
1413.76146,0.05959
1412.79709,0.05997
1411.83273,0.06024
1410.86836,0.06048
1409.90399,0.06081
1408.93963,0.06115
1407.97526,0.06149
1407.01089,0.06181
1406.04653,0.06200
1405.08216,0.06206
1404.11779,0.06222
1403.15343,0.06263
1402.18906,0.06308
1401.22469,0.06345
1400.26033,0.06357
1399.29596,0.06351
1398.33159,0.06360
1397.36723,0.06396
1396.40286,0.06425
1395.43849,0.06403
1394.47413,0.06374
1393.50976,0.06391
1392.54539,0.06453
1391.58103,0.06500
1390.61666,0.06522
1389.65229,0.06546
1388.68793,0.06556
1387.72356,0.06535
1386.75919,0.06521
1385.79483,0.06542
1384.83046,0.06570
1383.86609,0.06577
1382.90173,0.06579
1381.93736,0.06584
1380.97299,0.06588
1380.00863,0.06593
1379.04426,0.06596
1378.07989,0.06595
1377.11553,0.06597
1376.15116,0.06598
1375.18680,0.06582
1374.22243,0.06558
1373.25806,0.06557
1372.29370,0.06583
1371.32933,0.06603
1370.36496,0.06600
1369.40060,0.06583
1368.43623,0.06569
1367.47186,0.06567
1366.50750,0.06569
1365.54313,0.06568
1364.57876,0.06558
1363.61440,0.06529
1362.65003,0.06497
1361.68566,0.06480
1360.72130,0.06475
1359.75693,0.06465
1358.79256,0.06451
1357.82820,0.06431
1356.86383,0.06412
1355.89946,0.06396
1354.93510,0.06376
1353.97073,0.06355
1353.00636,0.06332
1352.04200,0.06308
1351.07763,0.06284
1350.11326,0.06261
1349.14890,0.06237
1348.18453,0.06215
1347.22016,0.06198
1346.25580,0.06176
1345.29143,0.06146
1344.32706,0.06114
1343.36270,0.06089
1342.39833,0.06069
1341.43396,0.06040
1340.46960,0.05999
1339.50523,0.05959
1338.54086,0.05936
1337.57650,0.05921
1336.61213,0.05902
1335.64776,0.05881
1334.68340,0.05864
1333.71903,0.05844
1332.75466,0.05817
1331.79030,0.05793
1330.82593,0.05773
1329.86156,0.05752
1328.89720,0.05729
1327.93283,0.05711
1326.96846,0.05698
1326.00410,0.05683
1325.03973,0.05661
1324.07536,0.05634
1323.11100,0.05611
1322.14663,0.05590
1321.18226,0.05571
1320.21790,0.05551
1319.25353,0.05529
1318.28916,0.05512
1317.32480,0.05500
1316.36043,0.05487
1315.39606,0.05477
1314.43170,0.05469
1313.46733,0.05459
1312.50297,0.05448
1311.53860,0.05441
1310.57423,0.05436
1309.60987,0.05424
1308.64550,0.05412
1307.68113,0.05412
1306.71677,0.05418
1305.75240,0.05421
1304.78803,0.05414
1303.82367,0.05406
1302.85930,0.05401
1301.89493,0.05404
1300.93057,0.05411
1299.96620,0.05417
1299.00183,0.05419
1298.03747,0.05420
1297.07310,0.05430
1296.10873,0.05445
1295.14437,0.05455
1294.18000,0.05461
1293.21563,0.05469
1292.25127,0.05482
1291.28690,0.05496
1290.32253,0.05513
1289.35817,0.05525
1288.39380,0.05534
1287.42943,0.05544
1286.46507,0.05562
1285.50070,0.05587
1284.53633,0.05606
1283.57197,0.05618
1282.60760,0.05629
1281.64323,0.05648
1280.67887,0.05670
1279.71450,0.05690
1278.75013,0.05707
1277.78577,0.05725
1276.82140,0.05750
1275.85703,0.05779
1274.89267,0.05802
1273.92830,0.05820
1272.96393,0.05837
1271.99957,0.05856
1271.03520,0.05877
1270.07083,0.05903
1269.10647,0.05934
1268.14210,0.05967
1267.17773,0.05992
1266.21337,0.06007
1265.24900,0.06026
1264.28463,0.06055
1263.32027,0.06089
1262.35590,0.06120
1261.39153,0.06146
1260.42717,0.06168
1259.46280,0.06193
1258.49843,0.06226
1257.53407,0.06256
1256.56970,0.06275
1255.60533,0.06294
1254.64097,0.06325
1253.67660,0.06364
1252.71223,0.06397
1251.74787,0.06424
1250.78350,0.06447
1249.81914,0.06473
1248.85477,0.06507
1247.89040,0.06544
1246.92604,0.06575
1245.96167,0.06595
1244.99730,0.06617
1244.03294,0.06649
1243.06857,0.06675
1242.10420,0.06683
1241.13984,0.06695
1240.17547,0.06727
1239.21110,0.06755
1238.24674,0.06769
1237.28237,0.06783
1236.31800,0.06803
1235.35364,0.06817
1234.38927,0.06822
1233.42490,0.06821
1232.46054,0.06823
1231.49617,0.06829
1230.53180,0.06837
1229.56744,0.06844
1228.60307,0.06847
1227.63870,0.06846
1226.67434,0.06842
1225.70997,0.06835
1224.74560,0.06828
1223.78124,0.06819
1222.81687,0.06808
1221.85250,0.06795
1220.88814,0.06785
1219.92377,0.06778
1218.95940,0.06763
1217.99504,0.06742
1217.03067,0.06715
1216.06630,0.06691
1215.10194,0.06668
1214.13757,0.06642
1213.17320,0.06613
1212.20884,0.06589
1211.24447,0.06571
1210.28010,0.06546
1209.31574,0.06516
1208.35137,0.06492
1207.38700,0.06472
1206.42264,0.06450
1205.45827,0.06424
1204.49390,0.06399
1203.52954,0.06375
1202.56517,0.06351
1201.60080,0.06323
1200.63644,0.06293
1199.67207,0.06267
1198.70770,0.06246
1197.74334,0.06226
1196.77897,0.06201
1195.81460,0.06175
1194.85024,0.06151
1193.88587,0.06132
1192.92150,0.06114
1191.95714,0.06092
1190.99277,0.06073
1190.02840,0.06056
1189.06404,0.06038
1188.09967,0.06019
1187.13531,0.06003
1186.17094,0.05988
1185.20657,0.05968
1184.24221,0.05949
1183.27784,0.05933
1182.31347,0.05917
1181.34911,0.05896
1180.38474,0.05875
1179.42037,0.05871
1178.45601,0.05873
1177.49164,0.05865
1176.52727,0.05846
1175.56291,0.05824
1174.59854,0.05804
1173.63417,0.05788
1172.66981,0.05782
1171.70544,0.05780
1170.74107,0.05770
1169.77671,0.05751
1168.81234,0.05734
1167.84797,0.05728
1166.88361,0.05726
1165.91924,0.05722
1164.95487,0.05714
1163.99051,0.05703
1163.02614,0.05688
1162.06177,0.05670
1161.09741,0.05663
1160.13304,0.05669
1159.16867,0.05673
1158.20431,0.05665
1157.23994,0.05653
1156.27557,0.05644
1155.31121,0.05633
1154.34684,0.05622
1153.38247,0.05619
1152.41811,0.05620
1151.45374,0.05620
1150.48937,0.05623
1149.52501,0.05635
1148.56064,0.05647
1147.59627,0.05653
1146.63191,0.05657
1145.66754,0.05660
1144.70317,0.05663
1143.73881,0.05665
1142.77444,0.05666
1141.81007,0.05666
1140.84571,0.05672
1139.88134,0.05685
1138.91697,0.05704
1137.95261,0.05724
1136.98824,0.05742
1136.02387,0.05753
1135.05951,0.05754
1134.09514,0.05753
1133.13077,0.05765
1132.16641,0.05784
1131.20204,0.05799
1130.23767,0.05818
1129.27331,0.05845
1128.30894,0.05862
1127.34457,0.05869
1126.38021,0.05885
1125.41584,0.05913
1124.45148,0.05941
1123.48711,0.05962
1122.52274,0.05981
1121.55838,0.06004
1120.59401,0.06024
1119.62964,0.06037
1118.66528,0.06051
1117.70091,0.06073
1116.73654,0.06101
1115.77218,0.06122
1114.80781,0.06140
1113.84344,0.06162
1112.87908,0.06192
1111.91471,0.06229
1110.95034,0.06267
1109.98598,0.06299
1109.02161,0.06330
1108.05724,0.06363
1107.09288,0.06390
1106.12851,0.06418
1105.16414,0.06452
1104.19978,0.06486
1103.23541,0.06514
1102.27104,0.06546
1101.30668,0.06587
1100.34231,0.06628
1099.37794,0.06663
1098.41358,0.06694
1097.44921,0.06724
1096.48484,0.06759
1095.52048,0.06800
1094.55611,0.06847
1093.59174,0.06886
1092.62738,0.06913
1091.66301,0.06932
1090.69864,0.06957
1089.73428,0.06995
1088.76991,0.07034
1087.80554,0.07066
1086.84118,0.07092
1085.87681,0.07110
1084.91244,0.07125
1083.94808,0.07149
1082.98371,0.07175
1082.01934,0.07190
1081.05498,0.07199
1080.09061,0.07212
1079.12624,0.07235
1078.16188,0.07263
1077.19751,0.07285
1076.23314,0.07292
1075.26878,0.07284
1074.30441,0.07279
1073.34004,0.07294
1072.37568,0.07324
1071.41131,0.07338
1070.44694,0.07334
1069.48258,0.07325
1068.51821,0.07304
1067.55384,0.07264
1066.58948,0.07226
1065.62511,0.07214
1064.66074,0.07222
1063.69638,0.07224
1062.73201,0.07210
1061.76765,0.07194
1060.80328,0.07171
1059.83891,0.07122
1058.87455,0.07054
1057.91018,0.06991
1056.94581,0.06943
1055.98145,0.06905
1055.01708,0.06873
1054.05271,0.06846
1053.08835,0.06807
1052.12398,0.06747
1051.15961,0.06679
1050.19525,0.06626
1049.23088,0.06577
1048.26651,0.06513
1047.30215,0.06440
1046.33778,0.06371
1045.37341,0.06310
1044.40905,0.06249
1043.44468,0.06188
1042.48031,0.06129
1041.51595,0.06069
1040.55158,0.06004
1039.58721,0.05939
1038.62285,0.05876
1037.65848,0.05811
1036.69411,0.05748
1035.72975,0.05689
1034.76538,0.05628
1033.80101,0.05568
1032.83665,0.05508
1031.87228,0.05450
1030.90791,0.05395
1029.94355,0.05325
1028.97918,0.05225
1028.01481,0.05121
1027.05045,0.05054
1026.08608,0.05008
1025.12171,0.04954
1024.15735,0.04897
1023.19298,0.04847
1022.22861,0.04799
1021.26425,0.04748
1020.29988,0.04700
1019.33551,0.04647
1018.37115,0.04587
1017.40678,0.04533
1016.44241,0.04487
1015.47805,0.04444
1014.51368,0.04395
1013.54931,0.04345
1012.58495,0.04302
1011.62058,0.04261
1010.65621,0.04225
1009.69185,0.04203
1008.72748,0.04191
1007.76311,0.04174
1006.79875,0.04155
1005.83438,0.04144
1004.87001,0.04133
1003.90565,0.04109
1002.94128,0.04088
1001.97691,0.04081
1001.01255,0.04073
1000.04818,0.04054
999.08382,0.04039
998.11945,0.04036
997.15508,0.04034
996.19072,0.04021
995.22635,0.04003
994.26198,0.03991
993.29762,0.03980
992.33325,0.03957
991.36888,0.03936
990.40452,0.03935
989.44015,0.03934
988.47578,0.03920
987.51142,0.03905
986.54705,0.03891
985.58268,0.03873
984.61832,0.03854
983.65395,0.03834
982.68958,0.03809
981.72522,0.03780
980.76085,0.03753
979.79648,0.03724
978.83212,0.03700
977.86775,0.03680
976.90338,0.03658
975.93902,0.03630
974.97465,0.03599
974.01028,0.03568
973.04592,0.03535
972.08155,0.03501
971.11718,0.03464
970.15282,0.03425
969.18845,0.03390
968.22408,0.03361
967.25972,0.03328
966.29535,0.03283
965.33098,0.03236
964.36662,0.03194
963.40225,0.03153
962.43788,0.03117
961.47352,0.03086
960.50915,0.03052
959.54478,0.03014
958.58042,0.02978
957.61605,0.02945
956.65168,0.02913
955.68732,0.02882
954.72295,0.02850
953.75858,0.02816
952.79422,0.02782
951.82985,0.02748
950.86548,0.02712
949.90112,0.02676
948.93675,0.02641
947.97238,0.02607
947.00802,0.02574
946.04365,0.02542
945.07928,0.02513
944.11492,0.02484
943.15055,0.02452
942.18618,0.02420
941.22182,0.02393
940.25745,0.02364
939.29308,0.02329
938.32872,0.02297
937.36435,0.02269
936.39998,0.02239
935.43562,0.02208
934.47125,0.02178
933.50689,0.02146
932.54252,0.02111
931.57815,0.02077
930.61379,0.02046
929.64942,0.02015
928.68505,0.01981
927.72069,0.01952
926.75632,0.01931
925.79195,0.01906
924.82759,0.01872
923.86322,0.01835
922.89885,0.01803
921.93449,0.01775
920.97012,0.01750
920.00575,0.01721
919.04139,0.01689
918.07702,0.01661
917.11265,0.01638
916.14829,0.01614
915.18392,0.01588
914.21955,0.01562
913.25519,0.01531
912.29082,0.01498
911.32645,0.01475
910.36209,0.01463
909.39772,0.01445
908.43335,0.01416
907.46899,0.01389
906.50462,0.01366
905.54025,0.01342
904.57589,0.01321
903.61152,0.01302
902.64715,0.01280
901.68279,0.01260
900.71842,0.01253
899.75405,0.01245
898.78969,0.01228
897.82532,0.01207
896.86095,0.01188
895.89659,0.01167
894.93222,0.01144
893.96785,0.01135
893.00349,0.01138
892.03912,0.01132
891.07475,0.01116
890.11039,0.01099
889.14602,0.01087
888.18165,0.01082
887.21729,0.01083
886.25292,0.01084
885.28855,0.01076
884.32419,0.01060
883.35982,0.01042
882.39545,0.01032
881.43109,0.01026
880.46672,0.01015
879.50235,0.01012
878.53799,0.01028
877.57362,0.01044
876.60925,0.01045
875.64489,0.01028
874.68052,0.01003
873.71615,0.00987
872.75179,0.00991
871.78742,0.01003
870.82306,0.01007
869.85869,0.01000
868.89432,0.00988
867.92996,0.00989
866.96559,0.01008
866.00122,0.01023
865.03686,0.01014
864.07249,0.00996
863.10812,0.00996
862.14376,0.01010
861.17939,0.01016
860.21502,0.01013
859.25066,0.01016
858.28629,0.01020
857.32192,0.01020
856.35756,0.01026
855.39319,0.01044
854.42882,0.01058
853.46446,0.01050
852.50009,0.01035
851.53572,0.01035
850.57136,0.01041
849.60699,0.01039
848.64262,0.01042
847.67826,0.01056
846.71389,0.01066
845.74952,0.01064
844.78516,0.01058
843.82079,0.01058
842.85642,0.01061
841.89206,0.01054
840.92769,0.01041
839.96332,0.01035
838.99896,0.01046
838.03459,0.01067
837.07022,0.01071
836.10586,0.01052
835.14149,0.01039
834.17712,0.01041
833.21276,0.01039
832.24839,0.01027
831.28402,0.01016
830.31966,0.01004
829.35529,0.00992
828.39092,0.00993
827.42656,0.00994
826.46219,0.00974
825.49782,0.00952
824.53346,0.00950
823.56909,0.00957
822.60472,0.00949
821.64036,0.00935
820.67599,0.00929
819.71162,0.00919
818.74726,0.00896
817.78289,0.00871
816.81852,0.00858
815.85416,0.00858
814.88979,0.00865
813.92542,0.00869
812.96106,0.00865
811.99669,0.00860
811.03232,0.00860
810.06796,0.00859
809.10359,0.00849
808.13923,0.00827
807.17486,0.00805
806.21049,0.00793
805.24613,0.00795
804.28176,0.00800
803.31739,0.00793
802.35303,0.00781
801.38866,0.00775
800.42429,0.00771
799.45993,0.00765
798.49556,0.00762
797.53119,0.00755
796.56683,0.00748
795.60246,0.00755
794.63809,0.00762
793.67373,0.00753
792.70936,0.00741
791.74499,0.00733
790.78063,0.00725
789.81626,0.00715
788.85189,0.00711
787.88753,0.00708
786.92316,0.00705
785.95879,0.00704
784.99443,0.00704
784.03006,0.00702
783.06569,0.00700
782.10133,0.00701
781.13696,0.00699
780.17259,0.00705
779.20823,0.00719
778.24386,0.00724
777.27949,0.00716
776.31513,0.00707
775.35076,0.00706
774.38639,0.00714
773.42203,0.00726
772.45766,0.00730
771.49329,0.00723
770.52893,0.00715
769.56456,0.00706
768.60019,0.00700
767.63583,0.00701
766.67146,0.00703
765.70709,0.00705
764.74273,0.00708
763.77836,0.00718
762.81399,0.00731
761.84963,0.00737
760.88526,0.00740
759.92089,0.00750
758.95653,0.00766
757.99216,0.00768
757.02779,0.00750
756.06343,0.00736
755.09906,0.00738
754.13469,0.00748
753.17033,0.00759
752.20596,0.00770
751.24159,0.00779
750.27723,0.00784
749.31286,0.00784
748.34849,0.00778
747.38413,0.00772
746.41976,0.00779
745.45540,0.00798
744.49103,0.00822
743.52666,0.00835
742.56230,0.00829
741.59793,0.00823
740.63356,0.00833
739.66920,0.00850
738.70483,0.00858
737.74046,0.00858
736.77610,0.00860
735.81173,0.00876
734.84736,0.00896
733.88300,0.00901
732.91863,0.00899
731.95426,0.00905
730.98990,0.00919
730.02553,0.00934
729.06116,0.00946
728.09680,0.00953
727.13243,0.00958
726.16806,0.00960
725.20370,0.00958
724.23933,0.00957
723.27496,0.00967
722.31060,0.00990
721.34623,0.01019
720.38186,0.01039
719.41750,0.01036
718.45313,0.01018
717.48876,0.01008
716.52440,0.01017
715.56003,0.01041
714.59566,0.01059
713.63130,0.01064
712.66693,0.01068
711.70256,0.01084
710.73820,0.01101
709.77383,0.01099
708.80946,0.01090
707.84510,0.01101
706.88073,0.01126
705.91636,0.01137
704.95200,0.01126
703.98763,0.01116
703.02326,0.01125
702.05890,0.01146
701.09453,0.01161
700.13016,0.01165
699.16580,0.01170
698.20143,0.01178
697.23706,0.01191
696.27270,0.01207
695.30833,0.01223
694.34396,0.01238
693.37960,0.01249
692.41523,0.01255
691.45086,0.01253
690.48650,0.01255
689.52213,0.01271
688.55776,0.01287
687.59340,0.01290
686.62903,0.01285
685.66466,0.01282
684.70030,0.01288
683.73593,0.01308
682.77157,0.01331
681.80720,0.01336
680.84283,0.01336
679.87847,0.01345
678.91410,0.01347
677.94973,0.01336
676.98537,0.01326
676.02100,0.01328
675.05663,0.01335
674.09227,0.01345
673.12790,0.01360
672.16353,0.01365
671.19917,0.01371
670.23480,0.01450
669.27043,0.01730
668.30607,0.01818
667.34170,0.01627
666.37733,0.01351
665.41297,0.01324
664.44860,0.01351
663.48423,0.01380
662.51987,0.01394
661.55550,0.01388
660.59113,0.01389
659.62677,0.01421
658.66240,0.01462
657.69803,0.01478
656.73367,0.01462
655.76930,0.01436
654.80493,0.01424
653.84057,0.01434
652.87620,0.01455
651.91183,0.01475
650.94747,0.01494
649.98310,0.01512
649.01873,0.01521
648.05437,0.01517
647.09000,0.01510
646.12563,0.01519
645.16127,0.01534
644.19690,0.01540
643.23253,0.01536
642.26817,0.01528
641.30380,0.01523
640.33943,0.01518
639.37507,0.01505
638.41070,0.01489
637.44633,0.01489
636.48197,0.01499
635.51760,0.01509
634.55323,0.01520
633.58887,0.01528
632.62450,0.01525
631.66013,0.01516
630.69577,0.01512
629.73140,0.01519
628.76703,0.01534
627.80267,0.01549
626.83830,0.01555
625.87393,0.01562
624.90957,0.01584
623.94520,0.01605
622.98083,0.01604
622.01647,0.01590
621.05210,0.01579
620.08774,0.01580
619.12337,0.01593
618.15900,0.01604
617.19464,0.01604
616.23027,0.01601
615.26590,0.01596
614.30154,0.01586
613.33717,0.01583
612.37280,0.01594
611.40844,0.01602
610.44407,0.01595
609.47970,0.01582
608.51534,0.01578
607.55097,0.01580
606.58660,0.01580
605.62224,0.01586
604.65787,0.01600
603.69350,0.01607
602.72914,0.01605
601.76477,0.01601
600.80040,0.01589
599.83604,0.01573
598.87167,0.01567
597.90730,0.01568
596.94294,0.01566
595.97857,0.01560
595.01420,0.01556
594.04984,0.01548
593.08547,0.01535
592.12110,0.01529
591.15674,0.01536
590.19237,0.01548
589.22800,0.01551
588.26364,0.01541
587.29927,0.01531
586.33490,0.01535
585.37054,0.01540
584.40617,0.01530
583.44180,0.01528
582.47744,0.01545
581.51307,0.01560
580.54870,0.01546
579.58434,0.01515
578.61997,0.01496
577.65560,0.01492
576.69124,0.01490
575.72687,0.01491
574.76250,0.01517
573.79814,0.01545
572.83377,0.01544
571.86940,0.01524
570.90504,0.01495
569.94067,0.01464
568.97630,0.01456
568.01194,0.01486
567.04757,0.01518
566.08320,0.01520
565.11884,0.01516
564.15447,0.01510
563.19010,0.01490
562.22574,0.01463
561.26137,0.01462
560.29700,0.01491
559.33264,0.01513
558.36827,0.01510
557.40390,0.01498
556.43954,0.01494
555.47517,0.01500
554.51081,0.01510
553.54644,0.01520
552.58207,0.01528
551.61771,0.01541
550.65334,0.01546
549.68897,0.01519
548.72461,0.01467
547.76024,0.01441
546.79587,0.01457
545.83151,0.01479
544.86714,0.01474
543.90277,0.01442
542.93841,0.01415
541.97404,0.01423
541.00967,0.01449
540.04531,0.01469
539.08094,0.01482
538.11657,0.01493
537.15221,0.01501
536.18784,0.01512
535.22347,0.01517
534.25911,0.01500
533.29474,0.01476
532.33037,0.01450
531.36601,0.01434
530.40164,0.01435
529.43727,0.01444
528.47291,0.01456
527.50854,0.01456
526.54417,0.01442
525.57981,0.01437
524.61544,0.01448
523.65107,0.01432
522.68671,0.01394
521.72234,0.01386
520.75797,0.01388
519.79361,0.01365
518.82924,0.01337
517.86487,0.01350
516.90051,0.01386
515.93614,0.01396
514.97177,0.01395
514.00741,0.01407
513.04304,0.01390
512.07867,0.01318
511.11431,0.01265
510.14994,0.01277
509.18557,0.01302
508.22121,0.01328
507.25684,0.01357
506.29247,0.01357
505.32811,0.01317
504.36374,0.01282
503.39937,0.01267
502.43501,0.01249
501.47064,0.01231
500.50627,0.01209
499.54191,0.01206
498.57754,0.01262
497.61317,0.01344
496.64881,0.01385
495.68444,0.01370
494.72007,0.01339
493.75571,0.01314
492.79134,0.01279
491.82698,0.01247
490.86261,0.01206
489.89824,0.01156
488.93388,0.01176
487.96951,0.01280
487.00514,0.01341
486.04078,0.01338
485.07641,0.01354
484.11204,0.01320
483.14768,0.01215
482.18331,0.01203
481.21894,0.01287
480.25458,0.01313
479.29021,0.01281
478.32584,0.01274
477.36148,0.01305
476.39711,0.01336
475.43274,0.01316
474.46838,0.01232
473.50401,0.01177
472.53964,0.01213
471.57528,0.01255
470.61091,0.01223
469.64654,0.01125
468.68218,0.01038
467.71781,0.01032
466.75344,0.01094
465.78908,0.01125
464.82471,0.01072
463.86034,0.01009
462.89598,0.00993
461.93161,0.01025
460.96724,0.01077
460.00288,0.01105
459.03851,0.01064
458.07414,0.00953
457.10978,0.00902
456.14541,0.00965
455.18104,0.01027
454.21668,0.00985
453.25231,0.00939
452.28794,0.00972
451.32358,0.00989
450.35921,0.00948
449.39484,0.00921
448.43048,0.00917
447.46611,0.00897
446.50174,0.00878
445.53738,0.00918
444.57301,0.00999
443.60864,0.01055
442.64428,0.01007
441.67991,0.00877
440.71554,0.00792
439.75118,0.00788
438.78681,0.00827
437.82244,0.00871
436.85808,0.00842
435.89371,0.00681
434.92934,0.00511
433.96498,0.00510
433.00061,0.00645
432.03624,0.00773
431.07188,0.00784
430.10751,0.00717
429.14315,0.00653
428.17878,0.00608
427.21441,0.00570
426.25005,0.00486
425.28568,0.00378
424.32131,0.00404
423.35695,0.00559
422.39258,0.00594
421.42821,0.00477
420.46385,0.00407
419.49948,0.00408
418.53511,0.00442
417.57075,0.00470
416.60638,0.00491
415.64201,0.00504
414.67765,0.00539
413.71328,0.00555
412.74891,0.00548
411.78455,0.00517
410.82018,0.00433
409.85581,0.00444
408.89145,0.00564
407.92708,0.00582
406.96271,0.00456
405.99835,0.00295
405.03398,0.00153
404.06961,0.00023
403.10525,0.00056
402.14088,0.00202
401.17651,0.00266
400.21215,0.00266
399.24778,0.00266
