1900.76660,0.00733
1899.80223,0.00732
1898.83787,0.00731
1897.87350,0.00730
1896.90913,0.00730
1895.94477,0.00729
1894.98040,0.00728
1894.01603,0.00727
1893.05167,0.00726
1892.08730,0.00725
1891.12293,0.00724
1890.15857,0.00724
1889.19420,0.00723
1888.22983,0.00722
1887.26547,0.00721
1886.30110,0.00720
1885.33673,0.00719
1884.37237,0.00719
1883.40800,0.00718
1882.44364,0.00717
1881.47927,0.00716
1880.51490,0.00723
1879.55054,0.00635
1878.58617,0.00522
1877.62180,0.00443
1876.65744,0.00394
1875.69307,0.00368
1874.72870,0.00384
1873.76434,0.00416
1872.79997,0.00422
1871.83560,0.00406
1870.87124,0.00388
1869.90687,0.00357
1868.94250,0.00298
1867.97814,0.00254
1867.01377,0.00278
1866.04940,0.00363
1865.08504,0.00415
1864.12067,0.00395
1863.15630,0.00372
1862.19194,0.00381
1861.22757,0.00378
1860.26320,0.00351
1859.29884,0.00345
1858.33447,0.00370
1857.37010,0.00400
1856.40574,0.00414
1855.44137,0.00397
1854.47700,0.00361
1853.51264,0.00341
1852.54827,0.00341
1851.58390,0.00318
1850.61954,0.00245
1849.65517,0.00160
1848.69080,0.00131
1847.72644,0.00170
1846.76207,0.00183
1845.79770,0.00119
1844.83334,0.00064
1843.86897,0.00132
1842.90460,0.00251
1841.94024,0.00287
1840.97587,0.00251
1840.01150,0.00229
1839.04714,0.00228
1838.08277,0.00217
1837.11840,0.00209
1836.15404,0.00212
1835.18967,0.00202
1834.22530,0.00188
1833.26094,0.00200
1832.29657,0.00217
1831.33220,0.00185
1830.36784,0.00125
1829.40347,0.00119
1828.43910,0.00165
1827.47474,0.00161
1826.51037,0.00099
1825.54600,0.00082
1824.58164,0.00137
1823.61727,0.00155
1822.65290,0.00107
1821.68854,0.00072
1820.72417,0.00077
1819.75981,0.00075
1818.79544,0.00050
1817.83107,0.00032
1816.86671,0.00037
1815.90234,0.00056
1814.93797,0.00077
1813.97361,0.00082
1813.00924,0.00075
1812.04487,0.00077
1811.08051,0.00097
1810.11614,0.00118
1809.15177,0.00107
1808.18741,0.00073
1807.22304,0.00057
1806.25867,0.00072
1805.29431,0.00083
1804.32994,0.00064
1803.36557,0.00027
1802.40121,0.00003
1801.43684,0.00015
1800.47247,0.00043
1799.50811,0.00070
1798.54374,0.00083
1797.57937,0.00074
1796.61501,0.00064
1795.65064,0.00088
1794.68627,0.00112
1793.72191,0.00081
1792.75754,0.00032
1791.79317,0.00041
1790.82881,0.00094
1789.86444,0.00148
1788.90007,0.00186
1787.93571,0.00210
1786.97134,0.00207
1786.00697,0.00198
1785.04261,0.00216
1784.07824,0.00267
1783.11387,0.00310
1782.14951,0.00306
1781.18514,0.00280
1780.22077,0.00285
1779.25641,0.00335
1778.29204,0.00391
1777.32767,0.00433
1776.36331,0.00477
1775.39894,0.00508
1774.43457,0.00478
1773.47021,0.00417
1772.50584,0.00448
1771.54147,0.00600
1770.57711,0.00722
1769.61274,0.00732
1768.64837,0.00723
1767.68401,0.00798
1766.71964,0.00903
1765.75527,0.00976
1764.79091,0.01014
1763.82654,0.01013
1762.86217,0.00988
1761.89781,0.01014
1760.93344,0.01124
1759.96907,0.01227
1759.00471,0.01258
1758.04034,0.01260
1757.07597,0.01308
1756.11161,0.01396
1755.14724,0.01472
1754.18288,0.01497
1753.21851,0.01467
1752.25414,0.01433
1751.28978,0.01452
1750.32541,0.01526
1749.36104,0.01586
1748.39668,0.01629
1747.43231,0.01685
1746.46794,0.01742
1745.50358,0.01762
1744.53921,0.01765
1743.57484,0.01801
1742.61048,0.01853
1741.64611,0.01854
1740.68174,0.01817
1739.71738,0.01835
1738.75301,0.01932
1737.78864,0.02010
1736.82428,0.01969
1735.85991,0.01810
1734.89554,0.01689
1733.93118,0.01767
1732.96681,0.01956
1732.00244,0.02033
1731.03808,0.01974
1730.07371,0.01929
1729.10934,0.01955
1728.14498,0.01974
1727.18061,0.01956
1726.21624,0.01930
1725.25188,0.01918
1724.28751,0.01911
1723.32314,0.01903
1722.35878,0.01890
1721.39441,0.01870
1720.43004,0.01792
1719.46568,0.01641
1718.50131,0.01527
1717.53694,0.01571
1716.57258,0.01673
1715.60821,0.01681
1714.64384,0.01632
1713.67948,0.01625
1712.71511,0.01635
1711.75074,0.01605
1710.78638,0.01568
1709.82201,0.01561
1708.85764,0.01552
1707.89328,0.01499
1706.92891,0.01432
1705.96454,0.01413
1705.00018,0.01441
1704.03581,0.01489
1703.07144,0.01474
1702.10708,0.01278
1701.14271,0.01030
1700.17834,0.01018
1699.21398,0.01287
1698.24961,0.01416
1697.28524,0.01283
1696.32088,0.01136
1695.35651,0.01225
1694.39214,0.01379
1693.42778,0.01421
1692.46341,0.01367
1691.49905,0.01326
1690.53468,0.01315
1689.57031,0.01311
1688.60595,0.01327
1687.64158,0.01373
1686.67721,0.01327
1685.71285,0.01179
1684.74848,0.01100
1683.78411,0.01263
1682.81975,0.01474
1681.85538,0.01531
1680.89101,0.01482
1679.92665,0.01492
1678.96228,0.01560
1677.99791,0.01569
1677.03355,0.01482
1676.06918,0.01411
1675.10481,0.01483
1674.14045,0.01624
1673.17608,0.01669
1672.21171,0.01639
1671.24735,0.01626
1670.28298,0.01663
1669.31861,0.01730
1668.35425,0.01845
1667.38988,0.01948
1666.42551,0.02002
1665.46115,0.02024
1664.49678,0.02024
1663.53241,0.02027
1662.56805,0.02085
1661.60368,0.02203
1660.63931,0.02302
1659.67495,0.02351
1658.71058,0.02391
1657.74621,0.02446
1656.78185,0.02502
1655.81748,0.02479
1654.85311,0.02302
1653.88875,0.02156
1652.92438,0.02290
1651.96001,0.02692
1650.99565,0.02978
1650.03128,0.03030
1649.06691,0.02977
1648.10255,0.02982
1647.13818,0.03040
1646.17381,0.03157
1645.20945,0.03329
1644.24508,0.03479
1643.28071,0.03575
1642.31635,0.03637
1641.35198,0.03719
1640.38761,0.03816
1639.42325,0.03902
1638.45888,0.03969
1637.49451,0.03981
1636.53015,0.03998
1635.56578,0.04108
1634.60141,0.04369
1633.63705,0.04609
1632.67268,0.04738
1631.70831,0.04805
1630.74395,0.04891
1629.77958,0.04977
1628.81522,0.05063
1627.85085,0.05205
1626.88648,0.05396
1625.92212,0.05525
1624.95775,0.05571
1623.99338,0.05642
1623.02902,0.05837
1622.06465,0.06054
1621.10028,0.06205
1620.13592,0.06312
1619.17155,0.06379
1618.20718,0.06401
1617.24282,0.06470
1616.27845,0.06702
1615.31408,0.06976
1614.34972,0.07159
1613.38535,0.07266
1612.42098,0.07382
1611.45662,0.07507
1610.49225,0.07620
1609.52788,0.07738
1608.56352,0.07871
1607.59915,0.08022
1606.63478,0.08182
1605.67042,0.08331
1604.70605,0.08461
1603.74168,0.08582
1602.77732,0.08717
1601.81295,0.08860
1600.84858,0.08999
1599.88422,0.09119
1598.91985,0.09228
1597.95548,0.09337
1596.99112,0.09444
1596.02675,0.09553
1595.06238,0.09671
1594.09802,0.09793
1593.13365,0.09889
1592.16928,0.09965
1591.20492,0.10042
1590.24055,0.10122
1589.27618,0.10198
1588.31182,0.10264
1587.34745,0.10321
1586.38308,0.10366
1585.41872,0.10406
1584.45435,0.10448
1583.48998,0.10487
1582.52562,0.10531
1581.56125,0.10579
1580.59688,0.10620
1579.63252,0.10642
1578.66815,0.10597
1577.70378,0.10488
1576.73942,0.10421
1575.77505,0.10510
1574.81068,0.10640
1573.84632,0.10674
1572.88195,0.10628
1571.91758,0.10557
1570.95322,0.10464
1569.98885,0.10400
1569.02448,0.10440
1568.06012,0.10507
1567.09575,0.10494
1566.13139,0.10411
1565.16702,0.10346
1564.20265,0.10324
1563.23829,0.10309
1562.27392,0.10207
1561.30955,0.09967
1560.34519,0.09661
1559.38082,0.09505
1558.41645,0.09593
1557.45209,0.09819
1556.48772,0.09931
1555.52335,0.09861
1554.55899,0.09755
1553.59462,0.09745
1552.63025,0.09732
1551.66589,0.09628
1550.70152,0.09501
1549.73715,0.09450
1548.77279,0.09441
1547.80842,0.09380
1546.84405,0.09244
1545.87969,0.09120
1544.91532,0.09066
1543.95095,0.09008
1542.98659,0.08894
1542.02222,0.08770
1541.05785,0.08686
1540.09349,0.08648
1539.12912,0.08705
1538.16475,0.08806
1537.20039,0.08823
1536.23602,0.08696
1535.27165,0.08497
1534.30729,0.08342
1533.34292,0.08307
1532.37855,0.08368
1531.41419,0.08398
1530.44982,0.08338
1529.48545,0.08230
1528.52109,0.08139
1527.55672,0.08070
1526.59235,0.08005
1525.62799,0.07960
1524.66362,0.07925
1523.69925,0.07834
1522.73489,0.07679
1521.77052,0.07584
1520.80615,0.07641
1519.84179,0.07715
1518.87742,0.07638
1517.91305,0.07480
1516.94869,0.07436
1515.98432,0.07511
1515.01995,0.07541
1514.05559,0.07477
1513.09122,0.07397
1512.12685,0.07360
1511.16249,0.07325
1510.19812,0.07259
1509.23375,0.07140
1508.26939,0.06961
1507.30502,0.06819
1506.34065,0.06855
1505.37629,0.07046
1504.41192,0.07174
1503.44756,0.07153
1502.48319,0.07086
1501.51882,0.07046
1500.55446,0.06993
1499.59009,0.06930
1498.62572,0.06884
1497.66136,0.06849
1496.69699,0.06819
1495.73262,0.06835
1494.76826,0.06869
1493.80389,0.06867
1492.83952,0.06806
1491.87516,0.06713
1490.91079,0.06648
1489.94642,0.06653
1488.98206,0.06675
1488.01769,0.06658
1487.05332,0.06643
1486.08896,0.06668
1485.12459,0.06683
1484.16022,0.06660
1483.19586,0.06625
1482.23149,0.06602
1481.26712,0.06588
1480.30276,0.06580
1479.33839,0.06568
1478.37402,0.06526
1477.40966,0.06472
1476.44529,0.06453
1475.48092,0.06457
1474.51656,0.06400
1473.55219,0.06307
1472.58782,0.06306
1471.62346,0.06420
1470.65909,0.06519
1469.69472,0.06526
1468.73036,0.06505
1467.76599,0.06505
1466.80162,0.06482
1465.83726,0.06435
1464.87289,0.06427
1463.90852,0.06477
1462.94416,0.06509
1461.97979,0.06499
1461.01542,0.06468
1460.05106,0.06406
1459.08669,0.06282
1458.12232,0.06172
1457.15796,0.06193
1456.19359,0.06361
1455.22922,0.06511
1454.26486,0.06552
1453.30049,0.06527
1452.33612,0.06519
1451.37176,0.06520
1450.40739,0.06501
1449.44302,0.06465
1448.47866,0.06450
1447.51429,0.06486
1446.54992,0.06525
1445.58556,0.06530
1444.62119,0.06521
1443.65682,0.06530
1442.69246,0.06545
1441.72809,0.06545
1440.76373,0.06543
1439.79936,0.06543
1438.83499,0.06480
1437.87063,0.06372
1436.90626,0.06351
1435.94189,0.06485
1434.97753,0.06609
1434.01316,0.06627
1433.04879,0.06590
1432.08443,0.06565
1431.12006,0.06537
1430.15569,0.06532
1429.19133,0.06572
1428.22696,0.06626
1427.26259,0.06652
1426.29823,0.06635
1425.33386,0.06602
1424.36949,0.06596
1423.40513,0.06644
1422.44076,0.06693
1421.47639,0.06660
1420.51203,0.06575
1419.54766,0.06556
1418.58329,0.06659
1417.61893,0.06775
1416.65456,0.06830
1415.69019,0.06838
1414.72583,0.06845
1413.76146,0.06853
1412.79709,0.06869
1411.83273,0.06898
1410.86836,0.06926
1409.90399,0.06951
1408.93963,0.06986
1407.97526,0.07021
1407.01089,0.07020
1406.04653,0.06992
1405.08216,0.06999
1404.11779,0.07057
1403.15343,0.07113
1402.18906,0.07128
1401.22469,0.07106
1400.26033,0.07088
1399.29596,0.07113
1398.33159,0.07183
1397.36723,0.07224
1396.40286,0.07208
1395.43849,0.07201
1394.47413,0.07269
1393.50976,0.07369
1392.54539,0.07417
1391.58103,0.07417
1390.61666,0.07416
1389.65229,0.07422
1388.68793,0.07422
1387.72356,0.07449
1386.75919,0.07522
1385.79483,0.07593
1384.83046,0.07628
1383.86609,0.07646
1382.90173,0.07678
1381.93736,0.07715
1380.97299,0.07745
1380.00863,0.07773
1379.04426,0.07811
1378.07989,0.07857
1377.11553,0.07890
1376.15116,0.07894
1375.18680,0.07881
1374.22243,0.07895
1373.25806,0.07957
1372.29370,0.08039
1371.32933,0.08091
1370.36496,0.08102
1369.40060,0.08111
1368.43623,0.08150
1367.47186,0.08208
1366.50750,0.08252
1365.54313,0.08263
1364.57876,0.08258
1363.61440,0.08273
1362.65003,0.08330
1361.68566,0.08403
1360.72130,0.08459
1359.75693,0.08499
1358.79256,0.08537
1357.82820,0.08574
1356.86383,0.08603
1355.89946,0.08624
1354.93510,0.08646
1353.97073,0.08676
1353.00636,0.08713
1352.04200,0.08753
1351.07763,0.08795
1350.11326,0.08837
1349.14890,0.08880
1348.18453,0.08916
1347.22016,0.08940
1346.25580,0.08966
1345.29143,0.09009
1344.32706,0.09056
1343.36270,0.09088
1342.39833,0.09101
1341.43396,0.09113
1340.46960,0.09146
1339.50523,0.09203
1338.54086,0.09272
1337.57650,0.09339
1336.61213,0.09397
1335.64776,0.09442
1334.68340,0.09476
1333.71903,0.09497
1332.75466,0.09508
1331.79030,0.09525
1330.82593,0.09563
1329.86156,0.09625
1328.89720,0.09706
1327.93283,0.09783
1326.96846,0.09838
1326.00410,0.09872
1325.03973,0.09909
1324.07536,0.09959
1323.11100,0.10010
1322.14663,0.10051
1321.18226,0.10082
1320.21790,0.10110
1319.25353,0.10148
1318.28916,0.10205
1317.32480,0.10281
1316.36043,0.10355
1315.39606,0.10404
1314.43170,0.10428
1313.46733,0.10457
1312.50297,0.10516
1311.53860,0.10593
1310.57423,0.10654
1309.60987,0.10691
1308.64550,0.10729
1307.68113,0.10779
1306.71677,0.10824
1305.75240,0.10855
1304.78803,0.10892
1303.82367,0.10952
1302.85930,0.11032
1301.89493,0.11108
1300.93057,0.11163
1299.96620,0.11205
1299.00183,0.11253
1298.03747,0.11312
1297.07310,0.11371
1296.10873,0.11420
1295.14437,0.11463
1294.18000,0.11517
1293.21563,0.11590
1292.25127,0.11670
1291.28690,0.11731
1290.32253,0.11761
1289.35817,0.11780
1288.39380,0.11816
1287.42943,0.11883
1286.46507,0.11966
1285.50070,0.12039
1284.53633,0.12102
1283.57197,0.12159
1282.60760,0.12209
1281.64323,0.12253
1280.67887,0.12303
1279.71450,0.12361
1278.75013,0.12415
1277.78577,0.12461
1276.82140,0.12504
1275.85703,0.12545
1274.89267,0.12592
1273.92830,0.12654
1272.96393,0.12720
1271.99957,0.12775
1271.03520,0.12823
1270.07083,0.12872
1269.10647,0.12917
1268.14210,0.12956
1267.17773,0.12995
1266.21337,0.13041
1265.24900,0.13086
1264.28463,0.13121
1263.32027,0.13155
1262.35590,0.13202
1261.39153,0.13255
1260.42717,0.13303
1259.46280,0.13349
1258.49843,0.13394
1257.53407,0.13429
1256.56970,0.13444
1255.60533,0.13449
1254.64097,0.13466
1253.67660,0.13510
1252.71223,0.13570
1251.74787,0.13625
1250.78350,0.13659
1249.81914,0.13675
1248.85477,0.13678
1247.89040,0.13679
1246.92604,0.13696
1245.96167,0.13731
1244.99730,0.13757
1244.03294,0.13759
1243.06857,0.13760
1242.10420,0.13782
1241.13984,0.13804
1240.17547,0.13798
1239.21110,0.13778
1238.24674,0.13774
1237.28237,0.13793
1236.31800,0.13810
1235.35364,0.13809
1234.38927,0.13802
1233.42490,0.13805
1232.46054,0.13806
1231.49617,0.13795
1230.53180,0.13782
1229.56744,0.13775
1228.60307,0.13769
1227.63870,0.13759
1226.67434,0.13747
1225.70997,0.13738
1224.74560,0.13736
1223.78124,0.13727
1222.81687,0.13696
1221.85250,0.13656
1220.88814,0.13634
1219.92377,0.13627
1218.95940,0.13609
1217.99504,0.13579
1217.03067,0.13546
1216.06630,0.13513
1215.10194,0.13489
1214.13757,0.13471
1213.17320,0.13451
1212.20884,0.13426
1211.24447,0.13405
1210.28010,0.13382
1209.31574,0.13357
1208.35137,0.13338
1207.38700,0.13320
1206.42264,0.13293
1205.45827,0.13256
1204.49390,0.13223
1203.52954,0.13196
1202.56517,0.13170
1201.60080,0.13130
1200.63644,0.13069
1199.67207,0.13014
1198.70770,0.12999
1197.74334,0.13013
1196.77897,0.13012
1195.81460,0.12974
1194.85024,0.12927
1193.88587,0.12894
1192.92150,0.12870
1191.95714,0.12834
1190.99277,0.12797
1190.02840,0.12786
1189.06404,0.12793
1188.09967,0.12780
1187.13531,0.12735
1186.17094,0.12679
1185.20657,0.12636
1184.24221,0.12607
1183.27784,0.12572
1182.31347,0.12522
1181.34911,0.12474
1180.38474,0.12449
1179.42037,0.12436
1178.45601,0.12416
1177.49164,0.12394
1176.52727,0.12377
1175.56291,0.12350
1174.59854,0.12312
1173.63417,0.12282
1172.66981,0.12264
1171.70544,0.12243
1170.74107,0.12219
1169.77671,0.12198
1168.81234,0.12166
1167.84797,0.12123
1166.88361,0.12088
1165.91924,0.12066
1164.95487,0.12040
1163.99051,0.12000
1163.02614,0.11957
1162.06177,0.11917
1161.09741,0.11881
1160.13304,0.11856
1159.16867,0.11832
1158.20431,0.11786
1157.23994,0.11728
1156.27557,0.11698
1155.31121,0.11703
1154.34684,0.11708
1153.38247,0.11689
1152.41811,0.11653
1151.45374,0.11613
1150.48937,0.11576
1149.52501,0.11545
1148.56064,0.11517
1147.59627,0.11484
1146.63191,0.11447
1145.66754,0.11411
1144.70317,0.11382
1143.73881,0.11355
1142.77444,0.11315
1141.81007,0.11264
1140.84571,0.11222
1139.88134,0.11197
1138.91697,0.11173
1137.95261,0.11133
1136.98824,0.11078
1136.02387,0.11026
1135.05951,0.10997
1134.09514,0.10983
1133.13077,0.10955
1132.16641,0.10911
1131.20204,0.10875
1130.23767,0.10854
1129.27331,0.10824
1128.30894,0.10770
1127.34457,0.10706
1126.38021,0.10664
1125.41584,0.10651
1124.45148,0.10648
1123.48711,0.10636
1122.52274,0.10610
1121.55838,0.10560
1120.59401,0.10482
1119.62964,0.10411
1118.66528,0.10383
1117.70091,0.10385
1116.73654,0.10377
1115.77218,0.10340
1114.80781,0.10291
1113.84344,0.10267
1112.87908,0.10273
1111.91471,0.10271
1110.95034,0.10228
1109.98598,0.10166
1109.02161,0.10117
1108.05724,0.10085
1107.09288,0.10060
1106.12851,0.10043
1105.16414,0.10032
1104.19978,0.10006
1103.23541,0.09941
1102.27104,0.09857
1101.30668,0.09812
1100.34231,0.09812
1099.37794,0.09796
1098.41358,0.09745
1097.44921,0.09707
1096.48484,0.09696
1095.52048,0.09678
1094.55611,0.09639
1093.59174,0.09597
1092.62738,0.09566
1091.66301,0.09552
1090.69864,0.09558
1089.73428,0.09571
1088.76991,0.09566
1087.80554,0.09538
1086.84118,0.09487
1085.87681,0.09419
1084.91244,0.09364
1083.94808,0.09353
1082.98371,0.09364
1082.01934,0.09348
1081.05498,0.09307
1080.09061,0.09266
1079.12624,0.09231
1078.16188,0.09186
1077.19751,0.09122
1076.23314,0.09046
1075.26878,0.08973
1074.30441,0.08930
1073.34004,0.08918
1072.37568,0.08906
1071.41131,0.08865
1070.44694,0.08800
1069.48258,0.08752
1068.51821,0.08734
1067.55384,0.08726
1066.58948,0.08709
1065.62511,0.08689
1064.66074,0.08660
1063.69638,0.08602
1062.73201,0.08519
1061.76765,0.08450
1060.80328,0.08420
1059.83891,0.08420
1058.87455,0.08420
1057.91018,0.08403
1056.94581,0.08372
1055.98145,0.08337
1055.01708,0.08288
1054.05271,0.08215
1053.08835,0.08146
1052.12398,0.08106
1051.15961,0.08083
1050.19525,0.08059
1049.23088,0.08034
1048.26651,0.08004
1047.30215,0.07959
1046.33778,0.07903
1045.37341,0.07845
1044.40905,0.07790
1043.44468,0.07749
1042.48031,0.07721
1041.51595,0.07684
1040.55158,0.07634
1039.58721,0.07592
1038.62285,0.07572
1037.65848,0.07551
1036.69411,0.07492
1035.72975,0.07397
1034.76538,0.07312
1033.80101,0.07276
1032.83665,0.07263
1031.87228,0.07220
1030.90791,0.07147
1029.94355,0.07084
1028.97918,0.07062
1028.01481,0.07074
1027.05045,0.07078
1026.08608,0.07031
1025.12171,0.06934
1024.15735,0.06839
1023.19298,0.06790
1022.22861,0.06776
1021.26425,0.06758
1020.29988,0.06727
1019.33551,0.06696
1018.37115,0.06659
1017.40678,0.06607
1016.44241,0.06557
1015.47805,0.06526
1014.51368,0.06502
1013.54931,0.06477
1012.58495,0.06468
1011.62058,0.06467
1010.65621,0.06427
1009.69185,0.06340
1008.72748,0.06266
1007.76311,0.06253
1006.79875,0.06269
1005.83438,0.06254
1004.87001,0.06202
1003.90565,0.06148
1002.94128,0.06108
1001.97691,0.06074
1001.01255,0.06038
1000.04818,0.06001
999.08382,0.05965
998.11945,0.05927
997.15508,0.05882
996.19072,0.05834
995.22635,0.05792
994.26198,0.05763
993.29762,0.05742
992.33325,0.05717
991.36888,0.05687
990.40452,0.05651
989.44015,0.05606
988.47578,0.05561
987.51142,0.05525
986.54705,0.05492
985.58268,0.05446
984.61832,0.05403
983.65395,0.05381
982.68958,0.05364
981.72522,0.05326
980.76085,0.05282
979.79648,0.05260
978.83212,0.05244
977.86775,0.05213
976.90338,0.05179
975.93902,0.05165
974.97465,0.05159
974.01028,0.05126
973.04592,0.05057
972.08155,0.04990
971.11718,0.04959
970.15282,0.04949
969.18845,0.04920
968.22408,0.04869
967.25972,0.04830
966.29535,0.04823
965.33098,0.04831
964.36662,0.04824
963.40225,0.04800
962.43788,0.04777
961.47352,0.04764
960.50915,0.04744
959.54478,0.04703
958.58042,0.04646
957.61605,0.04585
956.65168,0.04538
955.68732,0.04518
954.72295,0.04521
953.75858,0.04520
952.79422,0.04504
951.82985,0.04491
950.86548,0.04493
949.90112,0.04493
948.93675,0.04477
947.97238,0.04450
947.00802,0.04422
946.04365,0.04407
945.07928,0.04409
944.11492,0.04413
943.15055,0.04412
942.18618,0.04411
941.22182,0.04404
940.25745,0.04397
939.29308,0.04406
938.32872,0.04423
937.36435,0.04424
936.39998,0.04419
935.43562,0.04430
934.47125,0.04442
933.50689,0.04433
932.54252,0.04420
931.57815,0.04428
930.61379,0.04459
929.64942,0.04499
928.68505,0.04523
927.72069,0.04520
926.75632,0.04506
925.79195,0.04519
924.82759,0.04567
923.86322,0.04616
922.89885,0.04640
921.93449,0.04645
920.97012,0.04657
920.00575,0.04678
919.04139,0.04691
918.07702,0.04696
917.11265,0.04711
916.14829,0.04750
915.18392,0.04789
914.21955,0.04804
913.25519,0.04803
912.29082,0.04806
911.32645,0.04819
910.36209,0.04846
909.39772,0.04890
908.43335,0.04929
907.46899,0.04941
906.50462,0.04953
905.54025,0.04979
904.57589,0.04992
903.61152,0.04981
902.64715,0.04976
901.68279,0.04992
900.71842,0.05022
899.75405,0.05068
898.78969,0.05118
897.82532,0.05157
896.86095,0.05193
895.89659,0.05233
894.93222,0.05256
893.96785,0.05263
893.00349,0.05277
892.03912,0.05306
891.07475,0.05331
890.11039,0.05346
889.14602,0.05363
888.18165,0.05390
887.21729,0.05417
886.25292,0.05423
885.28855,0.05409
884.32419,0.05400
883.35982,0.05414
882.39545,0.05436
881.43109,0.05445
880.46672,0.05444
879.50235,0.05441
878.53799,0.05424
877.57362,0.05389
876.60925,0.05357
875.64489,0.05353
874.68052,0.05363
873.71615,0.05358
872.75179,0.05339
871.78742,0.05318
870.82306,0.05291
869.85869,0.05250
868.89432,0.05214
867.92996,0.05202
866.96559,0.05199
866.00122,0.05184
865.03686,0.05153
864.07249,0.05116
863.10812,0.05095
862.14376,0.05107
861.17939,0.05136
860.21502,0.05143
859.25066,0.05119
858.28629,0.05091
857.32192,0.05088
856.35756,0.05105
855.39319,0.05130
854.42882,0.05163
853.46446,0.05205
852.50009,0.05243
851.53572,0.05264
850.57136,0.05273
849.60699,0.05273
848.64262,0.05260
847.67826,0.05244
846.71389,0.05237
845.74952,0.05245
844.78516,0.05263
843.82079,0.05290
842.85642,0.05321
841.89206,0.05342
840.92769,0.05331
839.96332,0.05292
838.99896,0.05267
838.03459,0.05282
837.07022,0.05320
836.10586,0.05335
835.14149,0.05308
834.17712,0.05274
833.21276,0.05262
832.24839,0.05255
831.28402,0.05238
830.31966,0.05233
829.35529,0.05244
828.39092,0.05248
827.42656,0.05256
826.46219,0.05290
825.49782,0.05319
824.53346,0.05291
823.56909,0.05219
822.60472,0.05162
821.64036,0.05150
820.67599,0.05161
819.71162,0.05163
818.74726,0.05156
817.78289,0.05148
816.81852,0.05139
815.85416,0.05117
814.88979,0.05085
813.92542,0.05057
812.96106,0.05033
811.99669,0.04995
811.03232,0.04956
810.06796,0.04969
809.10359,0.05030
808.13923,0.05041
807.17486,0.04960
806.21049,0.04880
805.24613,0.04895
804.28176,0.04962
803.31739,0.04978
802.35303,0.04920
801.38866,0.04853
800.42429,0.04832
799.45993,0.04859
798.49556,0.04899
797.53119,0.04915
796.56683,0.04888
795.60246,0.04847
794.63809,0.04826
793.67373,0.04809
792.70936,0.04775
791.74499,0.04759
790.78063,0.04777
789.81626,0.04773
788.85189,0.04721
787.88753,0.04684
786.92316,0.04705
785.95879,0.04739
784.99443,0.04727
784.03006,0.04678
783.06569,0.04648
782.10133,0.04667
781.13696,0.04703
780.17259,0.04707
779.20823,0.04692
778.24386,0.04701
777.27949,0.04727
776.31513,0.04731
775.35076,0.04712
774.38639,0.04701
773.42203,0.04711
772.45766,0.04735
771.49329,0.04755
770.52893,0.04743
769.56456,0.04704
768.60019,0.04681
767.63583,0.04701
766.67146,0.04739
765.70709,0.04754
764.74273,0.04740
763.77836,0.04720
762.81399,0.04723
761.84963,0.04735
760.88526,0.04727
759.92089,0.04692
758.95653,0.04658
757.99216,0.04648
757.02779,0.04653
756.06343,0.04656
755.09906,0.04644
754.13469,0.04616
753.17033,0.04583
752.20596,0.04547
751.24159,0.04508
750.27723,0.04477
749.31286,0.04467
748.34849,0.04462
747.38413,0.04445
746.41976,0.04419
745.45540,0.04398
744.49103,0.04374
743.52666,0.04334
742.56230,0.04286
741.59793,0.04257
740.63356,0.04249
739.66920,0.04239
738.70483,0.04224
737.74046,0.04229
736.77610,0.04238
735.81173,0.04216
734.84736,0.04177
733.88300,0.04148
732.91863,0.04124
731.95426,0.04097
730.98990,0.04082
730.02553,0.04081
729.06116,0.04071
728.09680,0.04044
727.13243,0.04023
726.16806,0.04016
725.20370,0.03995
724.23933,0.03946
723.27496,0.03904
722.31060,0.03913
721.34623,0.03958
720.38186,0.03973
719.41750,0.03936
718.45313,0.03891
717.48876,0.03869
716.52440,0.03858
715.56003,0.03842
714.59566,0.03814
713.63130,0.03770
712.66693,0.03729
711.70256,0.03713
710.73820,0.03710
709.77383,0.03702
708.80946,0.03718
707.84510,0.03776
706.88073,0.03815
705.91636,0.03785
704.95200,0.03721
703.98763,0.03684
703.02326,0.03685
702.05890,0.03703
701.09453,0.03709
700.13016,0.03670
699.16580,0.03601
698.20143,0.03569
697.23706,0.03606
696.27270,0.03665
695.30833,0.03684
694.34396,0.03660
693.37960,0.03627
692.41523,0.03609
691.45086,0.03595
690.48650,0.03570
689.52213,0.03548
688.55776,0.03549
687.59340,0.03561
686.62903,0.03557
685.66466,0.03553
684.70030,0.03575
683.73593,0.03598
682.77157,0.03593
681.80720,0.03574
680.84283,0.03569
679.87847,0.03563
678.91410,0.03541
677.94973,0.03518
676.98537,0.03506
676.02100,0.03493
675.05663,0.03478
674.09227,0.03472
673.12790,0.03479
672.16353,0.03497
671.19917,0.03460
670.23480,0.03317
669.27043,0.03282
668.30607,0.03518
667.34170,0.03821
666.37733,0.03807
665.41297,0.03600
664.44860,0.03468
663.48423,0.03477
662.51987,0.03474
661.55550,0.03437
660.59113,0.03416
659.62677,0.03447
658.66240,0.03495
657.69803,0.03499
656.73367,0.03451
655.76930,0.03410
654.80493,0.03414
653.84057,0.03447
652.87620,0.03454
651.91183,0.03408
650.94747,0.03364
649.98310,0.03380
649.01873,0.03435
648.05437,0.03456
647.09000,0.03446
646.12563,0.03459
645.16127,0.03496
644.19690,0.03501
643.23253,0.03462
642.26817,0.03437
641.30380,0.03453
640.33943,0.03482
639.37507,0.03489
638.41070,0.03489
637.44633,0.03525
636.48197,0.03595
635.51760,0.03628
634.55323,0.03572
633.58887,0.03483
632.62450,0.03454
631.66013,0.03494
630.69577,0.03532
629.73140,0.03516
628.76703,0.03474
627.80267,0.03454
626.83830,0.03451
625.87393,0.03446
624.90957,0.03469
623.94520,0.03550
622.98083,0.03624
622.01647,0.03617
621.05210,0.03561
620.08774,0.03545
619.12337,0.03558
618.15900,0.03523
617.19464,0.03458
616.23027,0.03432
615.26590,0.03444
614.30154,0.03461
613.33717,0.03485
612.37280,0.03504
611.40844,0.03497
610.44407,0.03511
609.47970,0.03586
608.51534,0.03651
607.55097,0.03642
606.58660,0.03598
605.62224,0.03573
604.65787,0.03563
603.69350,0.03576
602.72914,0.03623
601.76477,0.03649
600.80040,0.03610
599.83604,0.03569
598.87167,0.03576
597.90730,0.03577
596.94294,0.03521
595.97857,0.03463
595.01420,0.03458
594.04984,0.03465
593.08547,0.03432
592.12110,0.03391
591.15674,0.03394
590.19237,0.03415
589.22800,0.03404
588.26364,0.03371
587.29927,0.03341
586.33490,0.03307
585.37054,0.03272
584.40617,0.03275
583.44180,0.03331
582.47744,0.03376
581.51307,0.03344
580.54870,0.03257
579.58434,0.03200
578.61997,0.03216
577.65560,0.03262
576.69124,0.03268
575.72687,0.03220
574.76250,0.03177
573.79814,0.03174
572.83377,0.03190
571.86940,0.03204
570.90504,0.03199
569.94067,0.03143
568.97630,0.03045
568.01194,0.02961
567.04757,0.02920
566.08320,0.02894
565.11884,0.02880
564.15447,0.02913
563.19010,0.02966
562.22574,0.02945
561.26137,0.02848
560.29700,0.02774
559.33264,0.02779
558.36827,0.02844
557.40390,0.02936
556.43954,0.02986
555.47517,0.02936
554.51081,0.02847
553.54644,0.02809
552.58207,0.02789
551.61771,0.02720
550.65334,0.02656
549.68897,0.02666
548.72461,0.02692
547.76024,0.02631
546.79587,0.02505
545.83151,0.02428
544.86714,0.02448
543.90277,0.02513
542.93841,0.02563
541.97404,0.02599
541.00967,0.02624
540.04531,0.02625
539.08094,0.02632
538.11657,0.02674
537.15221,0.02695
536.18784,0.02657
535.22347,0.02641
534.25911,0.02691
533.29474,0.02704
532.33037,0.02636
531.36601,0.02610
530.40164,0.02695
529.43727,0.02779
528.47291,0.02744
527.50854,0.02651
526.54417,0.02638
525.57981,0.02692
524.61544,0.02672
523.65107,0.02560
522.68671,0.02495
521.72234,0.02522
520.75797,0.02551
519.79361,0.02587
518.82924,0.02686
517.86487,0.02750
516.90051,0.02638
515.93614,0.02427
514.97177,0.02316
514.00741,0.02371
513.04304,0.02511
512.07867,0.02595
511.11431,0.02550
510.14994,0.02446
509.18557,0.02407
508.22121,0.02449
507.25684,0.02507
506.29247,0.02526
505.32811,0.02463
504.36374,0.02361
503.39937,0.02346
502.43501,0.02448
501.47064,0.02516
500.50627,0.02446
499.54191,0.02306
498.57754,0.02186
497.61317,0.02142
496.64881,0.02195
495.68444,0.02287
494.72007,0.02328
493.75571,0.02304
492.79134,0.02244
491.82698,0.02139
490.86261,0.02006
489.89824,0.01906
488.93388,0.01906
487.96951,0.02008
487.00514,0.02131
486.04078,0.02234
485.07641,0.02320
484.11204,0.02310
483.14768,0.02150
482.18331,0.01980
481.21894,0.02012
480.25458,0.02235
479.29021,0.02414
478.32584,0.02385
477.36148,0.02209
476.39711,0.01992
475.43274,0.01674
474.46838,0.01317
473.50401,0.01258
472.53964,0.01633
471.57528,0.02048
470.61091,0.02076
469.64654,0.01830
468.68218,0.01694
467.71781,0.01764
466.75344,0.01801
465.78908,0.01652
464.82471,0.01402
463.86034,0.01184
462.89598,0.01151
461.93161,0.01379
460.96724,0.01624
460.00288,0.01522
459.03851,0.01236
458.07414,0.01217
457.10978,0.01479
456.14541,0.01681
455.18104,0.01754
454.21668,0.01782
453.25231,0.01749
452.28794,0.01632
451.32358,0.01562
450.35921,0.01538
449.39484,0.01429
448.43048,0.01236
447.46611,0.01119
446.50174,0.01147
445.53738,0.01258
444.57301,0.01457
443.60864,0.01679
442.64428,0.01738
441.67991,0.01618
440.71554,0.01461
439.75118,0.01270
438.78681,0.00980
437.82244,0.00750
436.85808,0.00723
435.89371,0.00783
434.92934,0.00721
433.96498,0.00496
433.00061,0.00252
432.03624,0.00128
431.07188,0.00196
430.10751,0.00431
429.14315,0.00634
428.17878,0.00579
427.21441,0.00443
426.25005,0.00623
425.28568,0.00984
424.32131,0.01076
423.35695,0.00953
422.39258,0.00984
421.42821,0.01006
420.46385,0.00714
419.49948,0.00392
418.53511,0.00482
417.57075,0.00827
416.60638,0.01010
415.64201,0.00900
414.67765,0.00677
413.71328,0.00577
412.74891,0.00681
411.78455,0.00711
410.82018,0.00426
409.85581,0.00144
408.89145,0.00256
407.92708,0.00493
406.96271,0.00390
405.99835,0.00158
405.03398,0.00155
404.06961,0.00220
403.10525,0.00118
402.14088,0.00052
401.17651,0.00085
400.21215,0.00085
399.24778,0.00085
