1900.76660,0.00014
1899.80223,0.00016
1898.83787,0.00017
1897.87350,0.00019
1896.90913,0.00021
1895.94477,0.00023
1894.98040,0.00024
1894.01603,0.00026
1893.05167,0.00028
1892.08730,0.00029
1891.12293,0.00031
1890.15857,0.00033
1889.19420,0.00034
1888.22983,0.00036
1887.26547,0.00038
1886.30110,0.00039
1885.33673,0.00041
1884.37237,0.00043
1883.40800,0.00045
1882.44364,0.00046
1881.47927,0.00048
1880.51490,0.00023
1879.55054,0.00012
1878.58617,0.00034
1877.62180,0.00050
1876.65744,0.00044
1875.69307,0.00035
1874.72870,0.00036
1873.76434,0.00031
1872.79997,0.00019
1871.83560,0.00027
1870.87124,0.00045
1869.90687,0.00041
1868.94250,0.00015
1867.97814,0.00001
1867.01377,0.00004
1866.04940,0.00020
1865.08504,0.00052
1864.12067,0.00072
1863.15630,0.00071
1862.19194,0.00053
1861.22757,0.00027
1860.26320,0.00017
1859.29884,0.00034
1858.33447,0.00064
1857.37010,0.00074
1856.40574,0.00073
1855.44137,0.00075
1854.47700,0.00082
1853.51264,0.00092
1852.54827,0.00108
1851.58390,0.00136
1850.61954,0.00149
1849.65517,0.00145
1848.69080,0.00141
1847.72644,0.00150
1846.76207,0.00165
1845.79770,0.00172
1844.83334,0.00159
1843.86897,0.00148
1842.90460,0.00173
1841.94024,0.00215
1840.97587,0.00239
1840.01150,0.00263
1839.04714,0.00292
1838.08277,0.00317
1837.11840,0.00340
1836.15404,0.00362
1835.18967,0.00378
1834.22530,0.00402
1833.26094,0.00437
1832.29657,0.00470
1831.33220,0.00491
1830.36784,0.00498
1829.40347,0.00511
1828.43910,0.00527
1827.47474,0.00548
1826.51037,0.00576
1825.54600,0.00614
1824.58164,0.00655
1823.61727,0.00689
1822.65290,0.00721
1821.68854,0.00752
1820.72417,0.00776
1819.75981,0.00787
1818.79544,0.00796
1817.83107,0.00810
1816.86671,0.00820
1815.90234,0.00836
1814.93797,0.00858
1813.97361,0.00873
1813.00924,0.00888
1812.04487,0.00917
1811.08051,0.00935
1810.11614,0.00937
1809.15177,0.00947
1808.18741,0.00961
1807.22304,0.00973
1806.25867,0.00987
1805.29431,0.01005
1804.32994,0.01021
1803.36557,0.01037
1802.40121,0.01051
1801.43684,0.01053
1800.47247,0.01054
1799.50811,0.01063
1798.54374,0.01083
1797.57937,0.01100
1796.61501,0.01115
1795.65064,0.01135
1794.68627,0.01163
1793.72191,0.01189
1792.75754,0.01205
1791.79317,0.01227
1790.82881,0.01253
1789.86444,0.01289
1788.90007,0.01332
1787.93571,0.01374
1786.97134,0.01416
1786.00697,0.01457
1785.04261,0.01499
1784.07824,0.01533
1783.11387,0.01573
1782.14951,0.01624
1781.18514,0.01678
1780.22077,0.01738
1779.25641,0.01791
1778.29204,0.01846
1777.32767,0.01902
1776.36331,0.01959
1775.39894,0.02027
1774.43457,0.02108
1773.47021,0.02190
1772.50584,0.02253
1771.54147,0.02326
1770.57711,0.02419
1769.61274,0.02527
1768.64837,0.02622
1767.68401,0.02705
1766.71964,0.02794
1765.75527,0.02894
1764.79091,0.03000
1763.82654,0.03099
1762.86217,0.03199
1761.89781,0.03291
1760.93344,0.03390
1759.96907,0.03503
1759.00471,0.03620
1758.04034,0.03737
1757.07597,0.03831
1756.11161,0.03927
1755.14724,0.04031
1754.18288,0.04147
1753.21851,0.04269
1752.25414,0.04377
1751.28978,0.04468
1750.32541,0.04542
1749.36104,0.04632
1748.39668,0.04726
1747.43231,0.04820
1746.46794,0.04920
1745.50358,0.05022
1744.53921,0.05128
1743.57484,0.05203
1742.61048,0.05263
1741.64611,0.05343
1740.68174,0.05430
1739.71738,0.05483
1738.75301,0.05521
1737.78864,0.05584
1736.82428,0.05659
1735.85991,0.05751
1734.89554,0.05790
1733.93118,0.05770
1732.96681,0.05754
1732.00244,0.05806
1731.03808,0.05861
1730.07371,0.05865
1729.10934,0.05860
1728.14498,0.05869
1727.18061,0.05880
1726.21624,0.05869
1725.25188,0.05856
1724.28751,0.05841
1723.32314,0.05804
1722.35878,0.05768
1721.39441,0.05742
1720.43004,0.05729
1719.46568,0.05714
1718.50131,0.05634
1717.53694,0.05522
1716.57258,0.05454
1715.60821,0.05443
1714.64384,0.05380
1713.67948,0.05300
1712.71511,0.05250
1711.75074,0.05219
1710.78638,0.05167
1709.82201,0.05101
1708.85764,0.05052
1707.89328,0.05006
1706.92891,0.04939
1705.96454,0.04851
1705.00018,0.04771
1704.03581,0.04699
1703.07144,0.04649
1702.10708,0.04687
1701.14271,0.04616
1700.17834,0.04441
1699.21398,0.04293
1698.24961,0.04320
1697.28524,0.04360
1696.32088,0.04289
1695.35651,0.04177
1694.39214,0.04110
1693.42778,0.04120
1692.46341,0.04104
1691.49905,0.04067
1690.53468,0.04021
1689.57031,0.03981
1688.60595,0.03952
1687.64158,0.03937
1686.67721,0.03949
1685.71285,0.03960
1684.74848,0.03910
1683.78411,0.03840
1682.81975,0.03843
1681.85538,0.03912
1680.89101,0.03956
1679.92665,0.03980
1678.96228,0.04008
1677.99791,0.04065
1677.03355,0.04136
1676.06918,0.04183
1675.10481,0.04194
1674.14045,0.04220
1673.17608,0.04310
1672.21171,0.04407
1671.24735,0.04487
1670.28298,0.04550
1669.31861,0.04619
1668.35425,0.04698
1667.38988,0.04806
1666.42551,0.04924
1665.46115,0.05028
1664.49678,0.05133
1663.53241,0.05226
1662.56805,0.05319
1661.60368,0.05423
1660.63931,0.05553
1659.67495,0.05682
1658.71058,0.05803
1657.74621,0.05920
1656.78185,0.06032
1655.81748,0.06163
1654.85311,0.06305
1653.88875,0.06390
1652.92438,0.06439
1651.96001,0.06532
1650.99565,0.06711
1650.03128,0.06890
1649.06691,0.07043
1648.10255,0.07157
1647.13818,0.07266
1646.17381,0.07375
1645.20945,0.07507
1644.24508,0.07659
1643.28071,0.07812
1642.31635,0.07955
1641.35198,0.08085
1640.38761,0.08219
1639.42325,0.08351
1638.45888,0.08479
1637.49451,0.08610
1636.53015,0.08730
1635.56578,0.08808
1634.60141,0.08887
1633.63705,0.09020
1632.67268,0.09181
1631.70831,0.09306
1630.74395,0.09400
1629.77958,0.09497
1628.81522,0.09576
1627.85085,0.09628
1626.88648,0.09673
1625.92212,0.09737
1624.95775,0.09821
1623.99338,0.09819
1623.02902,0.09778
1622.06465,0.09751
1621.10028,0.09776
1620.13592,0.09774
1619.17155,0.09746
1618.20718,0.09752
1617.24282,0.09632
1616.27845,0.09462
1615.31408,0.09343
1614.34972,0.09344
1613.38535,0.09293
1612.42098,0.09199
1611.45662,0.09122
1610.49225,0.09023
1609.52788,0.08918
1608.56352,0.08813
1607.59915,0.08729
1606.63478,0.08641
1605.67042,0.08553
1604.70605,0.08488
1603.74168,0.08418
1602.77732,0.08352
1601.81295,0.08276
1600.84858,0.08214
1599.88422,0.08161
1598.91985,0.08117
1597.95548,0.08074
1596.99112,0.08020
1596.02675,0.07977
1595.06238,0.07922
1594.09802,0.07872
1593.13365,0.07820
1592.16928,0.07777
1591.20492,0.07730
1590.24055,0.07667
1589.27618,0.07614
1588.31182,0.07553
1587.34745,0.07496
1586.38308,0.07423
1585.41872,0.07353
1584.45435,0.07284
1583.48998,0.07205
1582.52562,0.07131
1581.56125,0.07044
1580.59688,0.06960
1579.63252,0.06857
1578.66815,0.06772
1577.70378,0.06718
1576.73942,0.06553
1575.77505,0.06346
1574.81068,0.06190
1573.84632,0.06151
1572.88195,0.06051
1571.91758,0.05942
1570.95322,0.05842
1569.98885,0.05659
1569.02448,0.05461
1568.06012,0.05316
1567.09575,0.05258
1566.13139,0.05146
1565.16702,0.04991
1564.20265,0.04833
1563.23829,0.04704
1562.27392,0.04635
1561.30955,0.04566
1560.34519,0.04406
1559.38082,0.04144
1558.41645,0.03893
1557.45209,0.03777
1556.48772,0.03755
1555.52335,0.03743
1554.55899,0.03613
1553.59462,0.03460
1552.63025,0.03357
1551.66589,0.03310
1550.70152,0.03209
1549.73715,0.03078
1548.77279,0.02975
1547.80842,0.02903
1546.84405,0.02849
1545.87969,0.02745
1544.91532,0.02626
1543.95095,0.02535
1542.98659,0.02454
1542.02222,0.02365
1541.05785,0.02275
1540.09349,0.02193
1539.12912,0.02074
1538.16475,0.01997
1537.20039,0.01981
1536.23602,0.01969
1535.27165,0.01939
1534.30729,0.01852
1533.34292,0.01755
1532.37855,0.01681
1531.41419,0.01664
1530.44982,0.01639
1529.48545,0.01600
1528.52109,0.01554
1527.55672,0.01506
1526.59235,0.01474
1525.62799,0.01428
1524.66362,0.01395
1523.69925,0.01389
1522.73489,0.01377
1521.77052,0.01335
1520.80615,0.01274
1519.84179,0.01261
1518.87742,0.01281
1517.91305,0.01293
1516.94869,0.01272
1515.98432,0.01259
1515.01995,0.01277
1514.05559,0.01295
1513.09122,0.01309
1512.12685,0.01305
1511.16249,0.01310
1510.19812,0.01319
1509.23375,0.01320
1508.26939,0.01327
1507.30502,0.01314
1506.34065,0.01317
1505.37629,0.01344
1504.41192,0.01415
1503.44756,0.01464
1502.48319,0.01493
1501.51882,0.01518
1500.55446,0.01550
1499.59009,0.01582
1498.62572,0.01605
1497.66136,0.01640
1496.69699,0.01672
1495.73262,0.01711
1494.76826,0.01764
1493.80389,0.01821
1492.83952,0.01872
1491.87516,0.01918
1490.91079,0.01954
1489.94642,0.01979
1488.98206,0.02029
1488.01769,0.02097
1487.05332,0.02154
1486.08896,0.02214
1485.12459,0.02281
1484.16022,0.02356
1483.19586,0.02420
1482.23149,0.02477
1481.26712,0.02534
1480.30276,0.02598
1479.33839,0.02672
1478.37402,0.02745
1477.40966,0.02824
1476.44529,0.02895
1475.48092,0.02973
1474.51656,0.03060
1473.55219,0.03134
1472.58782,0.03199
1471.62346,0.03276
1470.65909,0.03395
1469.69472,0.03512
1468.73036,0.03613
1467.76599,0.03695
1466.80162,0.03776
1465.83726,0.03860
1464.87289,0.03926
1463.90852,0.04005
1462.94416,0.04096
1461.97979,0.04197
1461.01542,0.04291
1460.05106,0.04376
1459.08669,0.04462
1458.12232,0.04524
1457.15796,0.04587
1456.19359,0.04659
1455.22922,0.04773
1454.26486,0.04899
1453.30049,0.05011
1452.33612,0.05107
1451.37176,0.05196
1450.40739,0.05302
1449.44302,0.05410
1448.47866,0.05504
1447.51429,0.05586
1446.54992,0.05680
1445.58556,0.05794
1444.62119,0.05903
1443.65682,0.06006
1442.69246,0.06099
1441.72809,0.06195
1440.76373,0.06291
1439.79936,0.06386
1438.83499,0.06497
1437.87063,0.06608
1436.90626,0.06681
1435.94189,0.06733
1434.97753,0.06827
1434.01316,0.06947
1433.04879,0.07043
1432.08443,0.07132
1431.12006,0.07219
1430.15569,0.07298
1429.19133,0.07370
1428.22696,0.07455
1427.26259,0.07539
1426.29823,0.07627
1425.33386,0.07719
1424.36949,0.07791
1423.40513,0.07852
1422.44076,0.07925
1421.47639,0.08041
1420.51203,0.08139
1419.54766,0.08170
1418.58329,0.08194
1417.61893,0.08267
1416.65456,0.08383
1415.69019,0.08470
1414.72583,0.08555
1413.76146,0.08635
1412.79709,0.08709
1411.83273,0.08779
1410.86836,0.08842
1409.90399,0.08913
1408.93963,0.08984
1407.97526,0.09053
1407.01089,0.09120
1406.04653,0.09179
1405.08216,0.09220
1404.11779,0.09264
1403.15343,0.09332
1402.18906,0.09400
1401.22469,0.09464
1400.26033,0.09513
1399.29596,0.09532
1398.33159,0.09547
1397.36723,0.09598
1396.40286,0.09664
1395.43849,0.09676
1394.47413,0.09660
1393.50976,0.09670
1392.54539,0.09724
1391.58103,0.09771
1390.61666,0.09789
1389.65229,0.09806
1388.68793,0.09825
1387.72356,0.09817
1386.75919,0.09795
1385.79483,0.09800
1384.83046,0.09832
1383.86609,0.09849
1382.90173,0.09849
1381.93736,0.09849
1380.97299,0.09854
1380.00863,0.09861
1379.04426,0.09865
1378.07989,0.09858
1377.11553,0.09849
1376.15116,0.09847
1375.18680,0.09835
1374.22243,0.09801
1373.25806,0.09774
1372.29370,0.09777
1371.32933,0.09782
1370.36496,0.09778
1369.40060,0.09763
1368.43623,0.09741
1367.47186,0.09719
1366.50750,0.09699
1365.54313,0.09690
1364.57876,0.09680
1363.61440,0.09644
1362.65003,0.09593
1361.68566,0.09553
1360.72130,0.09534
1359.75693,0.09515
1358.79256,0.09497
1357.82820,0.09470
1356.86383,0.09438
1355.89946,0.09405
1354.93510,0.09362
1353.97073,0.09318
1353.00636,0.09282
1352.04200,0.09252
1351.07763,0.09214
1350.11326,0.09167
1349.14890,0.09115
1348.18453,0.09066
1347.22016,0.09022
1346.25580,0.08980
1345.29143,0.08934
1344.32706,0.08881
1343.36270,0.08828
1342.39833,0.08785
1341.43396,0.08741
1340.46960,0.08683
1339.50523,0.08614
1338.54086,0.08556
1337.57650,0.08511
1336.61213,0.08468
1335.64776,0.08426
1334.68340,0.08386
1333.71903,0.08344
1332.75466,0.08295
1331.79030,0.08247
1330.82593,0.08205
1329.86156,0.08168
1328.89720,0.08133
1327.93283,0.08098
1326.96846,0.08061
1326.00410,0.08021
1325.03973,0.07983
1324.07536,0.07950
1323.11100,0.07920
1322.14663,0.07889
1321.18226,0.07859
1320.21790,0.07833
1319.25353,0.07806
1318.28916,0.07774
1317.32480,0.07741
1316.36043,0.07711
1315.39606,0.07681
1314.43170,0.07654
1313.46733,0.07630
1312.50297,0.07607
1311.53860,0.07585
1310.57423,0.07564
1309.60987,0.07546
1308.64550,0.07528
1307.68113,0.07507
1306.71677,0.07485
1305.75240,0.07464
1304.78803,0.07446
1303.82367,0.07431
1302.85930,0.07418
1301.89493,0.07405
1300.93057,0.07393
1299.96620,0.07382
1299.00183,0.07375
1298.03747,0.07372
1297.07310,0.07371
1296.10873,0.07372
1295.14437,0.07373
1294.18000,0.07373
1293.21563,0.07375
1292.25127,0.07384
1291.28690,0.07394
1290.32253,0.07398
1289.35817,0.07402
1288.39380,0.07411
1287.42943,0.07423
1286.46507,0.07435
1285.50070,0.07444
1284.53633,0.07447
1283.57197,0.07451
1282.60760,0.07460
1281.64323,0.07468
1280.67887,0.07476
1279.71450,0.07488
1278.75013,0.07502
1277.78577,0.07511
1276.82140,0.07519
1275.85703,0.07531
1274.89267,0.07545
1273.92830,0.07559
1272.96393,0.07572
1271.99957,0.07589
1271.03520,0.07614
1270.07083,0.07638
1269.10647,0.07656
1268.14210,0.07676
1267.17773,0.07705
1266.21337,0.07732
1265.24900,0.07751
1264.28463,0.07765
1263.32027,0.07781
1262.35590,0.07803
1261.39153,0.07827
1260.42717,0.07847
1259.46280,0.07869
1258.49843,0.07900
1257.53407,0.07931
1256.56970,0.07953
1255.60533,0.07968
1254.64097,0.07991
1253.67660,0.08022
1252.71223,0.08049
1251.74787,0.08068
1250.78350,0.08083
1249.81914,0.08102
1248.85477,0.08126
1247.89040,0.08154
1246.92604,0.08178
1245.96167,0.08200
1244.99730,0.08220
1244.03294,0.08240
1243.06857,0.08264
1242.10420,0.08287
1241.13984,0.08306
1240.17547,0.08320
1239.21110,0.08338
1238.24674,0.08354
1237.28237,0.08367
1236.31800,0.08379
1235.35364,0.08387
1234.38927,0.08389
1233.42490,0.08388
1232.46054,0.08391
1231.49617,0.08394
1230.53180,0.08391
1229.56744,0.08389
1228.60307,0.08390
1227.63870,0.08392
1226.67434,0.08390
1225.70997,0.08378
1224.74560,0.08360
1223.78124,0.08345
1222.81687,0.08332
1221.85250,0.08311
1220.88814,0.08290
1219.92377,0.08273
1218.95940,0.08253
1217.99504,0.08224
1217.03067,0.08193
1216.06630,0.08166
1215.10194,0.08138
1214.13757,0.08107
1213.17320,0.08076
1212.20884,0.08051
1211.24447,0.08028
1210.28010,0.08004
1209.31574,0.07974
1208.35137,0.07936
1207.38700,0.07897
1206.42264,0.07862
1205.45827,0.07829
1204.49390,0.07798
1203.52954,0.07771
1202.56517,0.07746
1201.60080,0.07720
1200.63644,0.07693
1199.67207,0.07665
1198.70770,0.07636
1197.74334,0.07604
1196.77897,0.07573
1195.81460,0.07545
1194.85024,0.07520
1193.88587,0.07494
1192.92150,0.07466
1191.95714,0.07446
1190.99277,0.07435
1190.02840,0.07428
1189.06404,0.07414
1188.09967,0.07389
1187.13531,0.07366
1186.17094,0.07352
1185.20657,0.07339
1184.24221,0.07326
1183.27784,0.07314
1182.31347,0.07305
1181.34911,0.07297
1180.38474,0.07287
1179.42037,0.07276
1178.45601,0.07264
1177.49164,0.07251
1176.52727,0.07241
1175.56291,0.07233
1174.59854,0.07222
1173.63417,0.07205
1172.66981,0.07193
1171.70544,0.07192
1170.74107,0.07193
1169.77671,0.07192
1168.81234,0.07190
1167.84797,0.07183
1166.88361,0.07173
1165.91924,0.07168
1164.95487,0.07167
1163.99051,0.07163
1163.02614,0.07161
1162.06177,0.07168
1161.09741,0.07178
1160.13304,0.07187
1159.16867,0.07195
1158.20431,0.07200
1157.23994,0.07208
1156.27557,0.07218
1155.31121,0.07223
1154.34684,0.07220
1153.38247,0.07218
1152.41811,0.07232
1151.45374,0.07260
1150.48937,0.07291
1149.52501,0.07316
1148.56064,0.07336
1147.59627,0.07360
1146.63191,0.07387
1145.66754,0.07407
1144.70317,0.07419
1143.73881,0.07438
1142.77444,0.07468
1141.81007,0.07496
1140.84571,0.07522
1139.88134,0.07549
1138.91697,0.07580
1137.95261,0.07610
1136.98824,0.07639
1136.02387,0.07666
1135.05951,0.07699
1134.09514,0.07741
1133.13077,0.07780
1132.16641,0.07810
1131.20204,0.07847
1130.23767,0.07894
1129.27331,0.07938
1128.30894,0.07976
1127.34457,0.08017
1126.38021,0.08058
1125.41584,0.08093
1124.45148,0.08131
1123.48711,0.08176
1122.52274,0.08224
1121.55838,0.08267
1120.59401,0.08307
1119.62964,0.08355
1118.66528,0.08406
1117.70091,0.08457
1116.73654,0.08514
1115.77218,0.08569
1114.80781,0.08613
1113.84344,0.08654
1112.87908,0.08711
1111.91471,0.08776
1110.95034,0.08827
1109.98598,0.08870
1109.02161,0.08921
1108.05724,0.08982
1107.09288,0.09042
1106.12851,0.09098
1105.16414,0.09155
1104.19978,0.09214
1103.23541,0.09281
1102.27104,0.09348
1101.30668,0.09411
1100.34231,0.09474
1099.37794,0.09552
1098.41358,0.09639
1097.44921,0.09712
1096.48484,0.09769
1095.52048,0.09830
1094.55611,0.09902
1093.59174,0.09967
1092.62738,0.10031
1091.66301,0.10111
1090.69864,0.10195
1089.73428,0.10268
1088.76991,0.10331
1087.80554,0.10387
1086.84118,0.10439
1085.87681,0.10491
1084.91244,0.10544
1083.94808,0.10591
1082.98371,0.10633
1082.01934,0.10669
1081.05498,0.10706
1080.09061,0.10748
1079.12624,0.10793
1078.16188,0.10844
1077.19751,0.10902
1076.23314,0.10953
1075.26878,0.10987
1074.30441,0.11016
1073.34004,0.11049
1072.37568,0.11071
1071.41131,0.11069
1070.44694,0.11054
1069.48258,0.11041
1068.51821,0.11030
1067.55384,0.11007
1066.58948,0.10974
1065.62511,0.10950
1064.66074,0.10934
1063.69638,0.10904
1062.73201,0.10860
1061.76765,0.10815
1060.80328,0.10769
1059.83891,0.10712
1058.87455,0.10650
1057.91018,0.10589
1056.94581,0.10525
1055.98145,0.10457
1055.01708,0.10380
1054.05271,0.10291
1053.08835,0.10198
1052.12398,0.10107
1051.15961,0.10017
1050.19525,0.09933
1049.23088,0.09857
1048.26651,0.09769
1047.30215,0.09661
1046.33778,0.09549
1045.37341,0.09446
1044.40905,0.09345
1043.44468,0.09243
1042.48031,0.09138
1041.51595,0.09033
1040.55158,0.08931
1039.58721,0.08823
1038.62285,0.08700
1037.65848,0.08574
1036.69411,0.08459
1035.72975,0.08356
1034.76538,0.08248
1033.80101,0.08135
1032.83665,0.08028
1031.87228,0.07919
1030.90791,0.07798
1029.94355,0.07674
1028.97918,0.07560
1028.01481,0.07444
1027.05045,0.07329
1026.08608,0.07226
1025.12171,0.07135
1024.15735,0.07044
1023.19298,0.06942
1022.22861,0.06837
1021.26425,0.06738
1020.29988,0.06644
1019.33551,0.06553
1018.37115,0.06469
1017.40678,0.06393
1016.44241,0.06321
1015.47805,0.06253
1014.51368,0.06189
1013.54931,0.06126
1012.58495,0.06062
1011.62058,0.05999
1010.65621,0.05948
1009.69185,0.05909
1008.72748,0.05873
1007.76311,0.05836
1006.79875,0.05800
1005.83438,0.05772
1004.87001,0.05751
1003.90565,0.05729
1002.94128,0.05709
1001.97691,0.05699
1001.01255,0.05689
1000.04818,0.05666
999.08382,0.05643
998.11945,0.05630
997.15508,0.05623
996.19072,0.05615
995.22635,0.05604
994.26198,0.05588
993.29762,0.05573
992.33325,0.05565
991.36888,0.05560
990.40452,0.05550
989.44015,0.05528
988.47578,0.05497
987.51142,0.05466
986.54705,0.05448
985.58268,0.05445
984.61832,0.05443
983.65395,0.05429
982.68958,0.05403
981.72522,0.05375
980.76085,0.05348
979.79648,0.05322
978.83212,0.05300
977.86775,0.05275
976.90338,0.05239
975.93902,0.05194
974.97465,0.05152
974.01028,0.05111
973.04592,0.05069
972.08155,0.05025
971.11718,0.04980
970.15282,0.04931
969.18845,0.04872
968.22408,0.04813
967.25972,0.04767
966.29535,0.04721
965.33098,0.04656
964.36662,0.04586
963.40225,0.04530
962.43788,0.04478
961.47352,0.04423
960.50915,0.04371
959.54478,0.04315
958.58042,0.04252
957.61605,0.04191
956.65168,0.04141
955.68732,0.04091
954.72295,0.04031
953.75858,0.03975
952.79422,0.03930
951.82985,0.03891
950.86548,0.03851
949.90112,0.03809
948.93675,0.03760
947.97238,0.03711
947.00802,0.03675
946.04365,0.03644
945.07928,0.03610
944.11492,0.03570
943.15055,0.03520
942.18618,0.03466
941.22182,0.03417
940.25745,0.03373
939.29308,0.03321
938.32872,0.03272
937.36435,0.03234
936.39998,0.03190
935.43562,0.03132
934.47125,0.03072
933.50689,0.03023
932.54252,0.02979
931.57815,0.02936
930.61379,0.02891
929.64942,0.02840
928.68505,0.02791
927.72069,0.02749
926.75632,0.02711
925.79195,0.02666
924.82759,0.02615
923.86322,0.02566
922.89885,0.02524
921.93449,0.02486
920.97012,0.02445
920.00575,0.02408
919.04139,0.02375
918.07702,0.02340
917.11265,0.02303
916.14829,0.02269
915.18392,0.02234
914.21955,0.02190
913.25519,0.02141
912.29082,0.02093
911.32645,0.02048
910.36209,0.02006
909.39772,0.01970
908.43335,0.01943
907.46899,0.01920
906.50462,0.01889
905.54025,0.01847
904.57589,0.01802
903.61152,0.01758
902.64715,0.01712
901.68279,0.01670
900.71842,0.01642
899.75405,0.01621
898.78969,0.01592
897.82532,0.01554
896.86095,0.01523
895.89659,0.01498
894.93222,0.01469
893.96785,0.01444
893.00349,0.01429
892.03912,0.01413
891.07475,0.01386
890.11039,0.01355
889.14602,0.01331
888.18165,0.01314
887.21729,0.01301
886.25292,0.01281
885.28855,0.01253
884.32419,0.01231
883.35982,0.01223
882.39545,0.01216
881.43109,0.01204
880.46672,0.01198
879.50235,0.01190
878.53799,0.01170
877.57362,0.01148
876.60925,0.01137
875.64489,0.01127
874.68052,0.01114
873.71615,0.01108
872.75179,0.01107
871.78742,0.01102
870.82306,0.01089
869.85869,0.01071
868.89432,0.01060
867.92996,0.01055
866.96559,0.01049
866.00122,0.01042
865.03686,0.01035
864.07249,0.01030
863.10812,0.01026
862.14376,0.01022
861.17939,0.01016
860.21502,0.01009
859.25066,0.01005
858.28629,0.01006
857.32192,0.01010
856.35756,0.01013
855.39319,0.01008
854.42882,0.00995
853.46446,0.00981
852.50009,0.00972
851.53572,0.00968
850.57136,0.00966
849.60699,0.00965
848.64262,0.00970
847.67826,0.00975
846.71389,0.00968
845.74952,0.00957
844.78516,0.00950
843.82079,0.00939
842.85642,0.00926
841.89206,0.00919
840.92769,0.00917
839.96332,0.00916
838.99896,0.00923
838.03459,0.00931
837.07022,0.00926
836.10586,0.00907
835.14149,0.00889
834.17712,0.00883
833.21276,0.00879
832.24839,0.00874
831.28402,0.00870
830.31966,0.00853
829.35529,0.00822
828.39092,0.00806
827.42656,0.00813
826.46219,0.00810
825.49782,0.00783
824.53346,0.00760
823.56909,0.00757
822.60472,0.00752
821.64036,0.00736
820.67599,0.00712
819.71162,0.00689
818.74726,0.00679
817.78289,0.00676
816.81852,0.00664
815.85416,0.00649
814.88979,0.00647
813.92542,0.00644
812.96106,0.00627
811.99669,0.00619
811.03232,0.00615
810.06796,0.00593
809.10359,0.00560
808.13923,0.00544
807.17486,0.00545
806.21049,0.00545
805.24613,0.00538
804.28176,0.00520
803.31739,0.00500
802.35303,0.00497
801.38866,0.00500
800.42429,0.00492
799.45993,0.00481
798.49556,0.00476
797.53119,0.00466
796.56683,0.00442
795.60246,0.00425
794.63809,0.00434
793.67373,0.00454
792.70936,0.00457
791.74499,0.00440
790.78063,0.00423
789.81626,0.00418
788.85189,0.00416
787.88753,0.00410
786.92316,0.00403
785.95879,0.00396
784.99443,0.00386
784.03006,0.00380
783.06569,0.00383
782.10133,0.00389
781.13696,0.00388
780.17259,0.00379
779.20823,0.00373
778.24386,0.00382
777.27949,0.00391
776.31513,0.00385
775.35076,0.00371
774.38639,0.00368
773.42203,0.00372
772.45766,0.00373
771.49329,0.00375
770.52893,0.00380
769.56456,0.00379
768.60019,0.00369
767.63583,0.00371
766.67146,0.00389
765.70709,0.00400
764.74273,0.00394
763.77836,0.00392
762.81399,0.00408
761.84963,0.00420
760.88526,0.00417
759.92089,0.00413
758.95653,0.00423
757.99216,0.00440
757.02779,0.00450
756.06343,0.00458
755.09906,0.00473
754.13469,0.00488
753.17033,0.00492
752.20596,0.00492
751.24159,0.00504
750.27723,0.00522
749.31286,0.00537
748.34849,0.00547
747.38413,0.00566
746.41976,0.00595
745.45540,0.00615
744.49103,0.00624
743.52666,0.00633
742.56230,0.00649
741.59793,0.00669
740.63356,0.00693
739.66920,0.00720
738.70483,0.00736
737.74046,0.00745
736.77610,0.00753
735.81173,0.00758
734.84736,0.00755
733.88300,0.00750
732.91863,0.00758
731.95426,0.00771
730.98990,0.00774
730.02553,0.00770
729.06116,0.00769
728.09680,0.00776
727.13243,0.00785
726.16806,0.00786
725.20370,0.00781
724.23933,0.00788
723.27496,0.00806
722.31060,0.00821
721.34623,0.00835
720.38186,0.00852
719.41750,0.00869
718.45313,0.00888
717.48876,0.00910
716.52440,0.00924
715.56003,0.00926
714.59566,0.00926
713.63130,0.00936
712.66693,0.00957
711.70256,0.00982
710.73820,0.01013
709.77383,0.01042
708.80946,0.01056
707.84510,0.01059
706.88073,0.01054
705.91636,0.01057
704.95200,0.01082
703.98763,0.01118
703.02326,0.01134
702.05890,0.01127
701.09453,0.01125
700.13016,0.01134
699.16580,0.01141
698.20143,0.01146
697.23706,0.01156
696.27270,0.01167
695.30833,0.01170
694.34396,0.01174
693.37960,0.01188
692.41523,0.01206
691.45086,0.01216
690.48650,0.01213
689.52213,0.01204
688.55776,0.01202
687.59340,0.01214
686.62903,0.01226
685.66466,0.01227
684.70030,0.01222
683.73593,0.01227
682.77157,0.01244
681.80720,0.01265
680.84283,0.01276
679.87847,0.01271
678.91410,0.01268
677.94973,0.01279
676.98537,0.01294
676.02100,0.01304
675.05663,0.01314
674.09227,0.01322
673.12790,0.01325
672.16353,0.01328
671.19917,0.01327
670.23480,0.01326
669.27043,0.01321
668.30607,0.01301
667.34170,0.01298
666.37733,0.01332
665.41297,0.01376
664.44860,0.01389
663.48423,0.01397
662.51987,0.01417
661.55550,0.01437
660.59113,0.01444
659.62677,0.01443
658.66240,0.01447
657.69803,0.01457
656.73367,0.01465
655.76930,0.01482
654.80493,0.01518
653.84057,0.01554
652.87620,0.01573
651.91183,0.01579
650.94747,0.01585
649.98310,0.01585
649.01873,0.01581
648.05437,0.01578
647.09000,0.01578
646.12563,0.01593
645.16127,0.01619
644.19690,0.01638
643.23253,0.01647
642.26817,0.01649
641.30380,0.01649
640.33943,0.01648
639.37507,0.01655
638.41070,0.01677
637.44633,0.01702
636.48197,0.01715
635.51760,0.01722
634.55323,0.01734
633.58887,0.01742
632.62450,0.01747
631.66013,0.01750
630.69577,0.01749
629.73140,0.01759
628.76703,0.01784
627.80267,0.01801
626.83830,0.01795
625.87393,0.01786
624.90957,0.01799
623.94520,0.01826
622.98083,0.01848
622.01647,0.01855
621.05210,0.01856
620.08774,0.01858
619.12337,0.01862
618.15900,0.01872
617.19464,0.01878
616.23027,0.01885
615.26590,0.01898
614.30154,0.01909
613.33717,0.01898
612.37280,0.01870
611.40844,0.01850
610.44407,0.01846
609.47970,0.01853
608.51534,0.01866
607.55097,0.01872
606.58660,0.01866
605.62224,0.01866
604.65787,0.01884
603.69350,0.01899
602.72914,0.01878
601.76477,0.01826
600.80040,0.01793
599.83604,0.01807
598.87167,0.01836
597.90730,0.01850
596.94294,0.01857
595.97857,0.01858
595.01420,0.01842
594.04984,0.01826
593.08547,0.01812
592.12110,0.01792
591.15674,0.01776
590.19237,0.01785
589.22800,0.01825
588.26364,0.01846
587.29927,0.01819
586.33490,0.01786
585.37054,0.01792
584.40617,0.01815
583.44180,0.01812
582.47744,0.01800
581.51307,0.01793
580.54870,0.01784
579.58434,0.01771
578.61997,0.01766
577.65560,0.01781
576.69124,0.01792
575.72687,0.01797
574.76250,0.01804
573.79814,0.01802
572.83377,0.01783
571.86940,0.01778
570.90504,0.01815
569.94067,0.01837
568.97630,0.01826
568.01194,0.01820
567.04757,0.01810
566.08320,0.01779
565.11884,0.01746
564.15447,0.01746
563.19010,0.01760
562.22574,0.01768
561.26137,0.01767
560.29700,0.01745
559.33264,0.01735
558.36827,0.01773
557.40390,0.01836
556.43954,0.01856
555.47517,0.01832
554.51081,0.01818
553.54644,0.01819
552.58207,0.01815
551.61771,0.01809
550.65334,0.01817
549.68897,0.01820
548.72461,0.01807
547.76024,0.01794
546.79587,0.01781
545.83151,0.01774
544.86714,0.01770
543.90277,0.01772
542.93841,0.01773
541.97404,0.01767
541.00967,0.01760
540.04531,0.01743
539.08094,0.01730
538.11657,0.01731
537.15221,0.01741
536.18784,0.01746
535.22347,0.01731
534.25911,0.01710
533.29474,0.01699
532.33037,0.01698
531.36601,0.01705
530.40164,0.01724
529.43727,0.01745
528.47291,0.01735
527.50854,0.01697
526.54417,0.01664
525.57981,0.01659
524.61544,0.01669
523.65107,0.01661
522.68671,0.01640
521.72234,0.01650
520.75797,0.01699
519.79361,0.01733
518.82924,0.01729
517.86487,0.01695
516.90051,0.01644
515.93614,0.01604
514.97177,0.01604
514.00741,0.01646
513.04304,0.01702
512.07867,0.01737
511.11431,0.01726
510.14994,0.01677
509.18557,0.01630
508.22121,0.01612
507.25684,0.01620
506.29247,0.01622
505.32811,0.01612
504.36374,0.01636
503.39937,0.01660
502.43501,0.01631
501.47064,0.01595
500.50627,0.01603
499.54191,0.01617
498.57754,0.01572
497.61317,0.01538
496.64881,0.01580
495.68444,0.01608
494.72007,0.01540
493.75571,0.01442
492.79134,0.01436
491.82698,0.01477
490.86261,0.01486
489.89824,0.01495
488.93388,0.01513
487.96951,0.01517
487.00514,0.01505
486.04078,0.01502
485.07641,0.01500
484.11204,0.01464
483.14768,0.01401
482.18331,0.01353
481.21894,0.01376
480.25458,0.01425
479.29021,0.01414
478.32584,0.01374
477.36148,0.01374
476.39711,0.01396
475.43274,0.01383
474.46838,0.01367
473.50401,0.01404
472.53964,0.01426
471.57528,0.01365
470.61091,0.01280
469.64654,0.01242
468.68218,0.01197
467.71781,0.01170
466.75344,0.01196
465.78908,0.01232
464.82471,0.01225
463.86034,0.01220
462.89598,0.01245
461.93161,0.01264
460.96724,0.01291
460.00288,0.01292
459.03851,0.01228
458.07414,0.01141
457.10978,0.01079
456.14541,0.01122
455.18104,0.01198
454.21668,0.01196
453.25231,0.01125
452.28794,0.01099
451.32358,0.01137
450.35921,0.01154
449.39484,0.01158
448.43048,0.01108
447.46611,0.01044
446.50174,0.01061
445.53738,0.01060
444.57301,0.00977
443.60864,0.00920
442.64428,0.00930
441.67991,0.00911
440.71554,0.00890
439.75118,0.00970
438.78681,0.01064
437.82244,0.01088
436.85808,0.01023
435.89371,0.00905
434.92934,0.00792
433.96498,0.00725
433.00061,0.00729
432.03624,0.00794
431.07188,0.00875
430.10751,0.00896
429.14315,0.00857
428.17878,0.00831
427.21441,0.00851
426.25005,0.00910
425.28568,0.00952
424.32131,0.00916
423.35695,0.00760
422.39258,0.00560
421.42821,0.00380
420.46385,0.00185
419.49948,0.00098
418.53511,0.00156
417.57075,0.00206
416.60638,0.00118
415.64201,0.00074
414.67765,0.00127
413.71328,0.00120
412.74891,0.00044
411.78455,0.00020
410.82018,0.00053
409.85581,0.00053
408.89145,0.00018
407.92708,0.00049
406.96271,0.00111
405.99835,0.00081
405.03398,0.00050
404.06961,0.00171
403.10525,0.00328
402.14088,0.00311
401.17651,0.00164
400.21215,0.00164
399.24778,0.00164
