1900.76660,0.00141
1899.80223,0.00138
1898.83787,0.00136
1897.87350,0.00133
1896.90913,0.00130
1895.94477,0.00128
1894.98040,0.00125
1894.01603,0.00122
1893.05167,0.00119
1892.08730,0.00117
1891.12293,0.00114
1890.15857,0.00111
1889.19420,0.00109
1888.22983,0.00106
1887.26547,0.00103
1886.30110,0.00100
1885.33673,0.00098
1884.37237,0.00095
1883.40800,0.00092
1882.44364,0.00090
1881.47927,0.00087
1880.51490,0.00114
1879.55054,0.00125
1878.58617,0.00104
1877.62180,0.00067
1876.65744,0.00056
1875.69307,0.00071
1874.72870,0.00085
1873.76434,0.00092
1872.79997,0.00094
1871.83560,0.00091
1870.87124,0.00053
1869.90687,0.00013
1868.94250,0.00015
1867.97814,0.00039
1867.01377,0.00062
1866.04940,0.00092
1865.08504,0.00132
1864.12067,0.00143
1863.15630,0.00128
1862.19194,0.00104
1861.22757,0.00099
1860.26320,0.00119
1859.29884,0.00149
1858.33447,0.00174
1857.37010,0.00192
1856.40574,0.00208
1855.44137,0.00212
1854.47700,0.00217
1853.51264,0.00230
1852.54827,0.00257
1851.58390,0.00291
1850.61954,0.00310
1849.65517,0.00316
1848.69080,0.00323
1847.72644,0.00342
1846.76207,0.00352
1845.79770,0.00339
1844.83334,0.00348
1843.86897,0.00382
1842.90460,0.00426
1841.94024,0.00458
1840.97587,0.00507
1840.01150,0.00561
1839.04714,0.00590
1838.08277,0.00599
1837.11840,0.00612
1836.15404,0.00641
1835.18967,0.00676
1834.22530,0.00722
1833.26094,0.00775
1832.29657,0.00818
1831.33220,0.00815
1830.36784,0.00786
1829.40347,0.00803
1828.43910,0.00873
1827.47474,0.00944
1826.51037,0.00970
1825.54600,0.00994
1824.58164,0.01034
1823.61727,0.01075
1822.65290,0.01109
1821.68854,0.01133
1820.72417,0.01169
1819.75981,0.01207
1818.79544,0.01227
1817.83107,0.01222
1816.86671,0.01226
1815.90234,0.01256
1814.93797,0.01280
1813.97361,0.01302
1813.00924,0.01317
1812.04487,0.01319
1811.08051,0.01317
1810.11614,0.01338
1809.15177,0.01376
1808.18741,0.01397
1807.22304,0.01407
1806.25867,0.01420
1805.29431,0.01443
1804.32994,0.01460
1803.36557,0.01471
1802.40121,0.01479
1801.43684,0.01475
1800.47247,0.01483
1799.50811,0.01512
1798.54374,0.01560
1797.57937,0.01590
1796.61501,0.01609
1795.65064,0.01639
1794.68627,0.01662
1793.72191,0.01660
1792.75754,0.01652
1791.79317,0.01693
1790.82881,0.01775
1789.86444,0.01859
1788.90007,0.01924
1787.93571,0.01976
1786.97134,0.02032
1786.00697,0.02080
1785.04261,0.02144
1784.07824,0.02213
1783.11387,0.02275
1782.14951,0.02320
1781.18514,0.02369
1780.22077,0.02448
1779.25641,0.02542
1778.29204,0.02643
1777.32767,0.02718
1776.36331,0.02786
1775.39894,0.02868
1774.43457,0.02939
1773.47021,0.02994
1772.50584,0.03067
1771.54147,0.03210
1770.57711,0.03361
1769.61274,0.03471
1768.64837,0.03569
1767.68401,0.03695
1766.71964,0.03832
1765.75527,0.03939
1764.79091,0.04047
1763.82654,0.04148
1762.86217,0.04246
1761.89781,0.04363
1760.93344,0.04506
1759.96907,0.04646
1759.00471,0.04746
1758.04034,0.04834
1757.07597,0.04943
1756.11161,0.05093
1755.14724,0.05244
1754.18288,0.05368
1753.21851,0.05460
1752.25414,0.05538
1751.28978,0.05650
1750.32541,0.05765
1749.36104,0.05883
1748.39668,0.06007
1747.43231,0.06159
1746.46794,0.06308
1745.50358,0.06431
1744.53921,0.06548
1743.57484,0.06676
1742.61048,0.06826
1741.64611,0.06922
1740.68174,0.06976
1739.71738,0.07070
1738.75301,0.07189
1737.78864,0.07281
1736.82428,0.07304
1735.85991,0.07273
1734.89554,0.07207
1733.93118,0.07208
1732.96681,0.07281
1732.00244,0.07321
1731.03808,0.07289
1730.07371,0.07243
1729.10934,0.07224
1728.14498,0.07201
1727.18061,0.07156
1726.21624,0.07096
1725.25188,0.07021
1724.28751,0.06941
1723.32314,0.06864
1722.35878,0.06796
1721.39441,0.06720
1720.43004,0.06630
1719.46568,0.06495
1718.50131,0.06330
1717.53694,0.06225
1716.57258,0.06177
1715.60821,0.06115
1714.64384,0.06026
1713.67948,0.05970
1712.71511,0.05918
1711.75074,0.05832
1710.78638,0.05731
1709.82201,0.05638
1708.85764,0.05554
1707.89328,0.05446
1706.92891,0.05320
1705.96454,0.05197
1705.00018,0.05095
1704.03581,0.05014
1703.07144,0.04945
1702.10708,0.04858
1701.14271,0.04661
1700.17834,0.04510
1699.21398,0.04460
1698.24961,0.04474
1697.28524,0.04367
1696.32088,0.04228
1695.35651,0.04160
1694.39214,0.04167
1693.42778,0.04169
1692.46341,0.04111
1691.49905,0.04034
1690.53468,0.03953
1689.57031,0.03883
1688.60595,0.03833
1687.64158,0.03800
1686.67721,0.03768
1685.71285,0.03653
1684.74848,0.03510
1683.78411,0.03466
1682.81975,0.03554
1681.85538,0.03627
1680.89101,0.03626
1679.92665,0.03628
1678.96228,0.03652
1677.99791,0.03681
1677.03355,0.03669
1676.06918,0.03639
1675.10481,0.03648
1674.14045,0.03710
1673.17608,0.03774
1672.21171,0.03792
1671.24735,0.03810
1670.28298,0.03812
1669.31861,0.03856
1668.35425,0.03951
1667.38988,0.04073
1666.42551,0.04165
1665.46115,0.04231
1664.49678,0.04280
1663.53241,0.04311
1662.56805,0.04392
1661.60368,0.04519
1660.63931,0.04653
1659.67495,0.04761
1658.71058,0.04863
1657.74621,0.04974
1656.78185,0.05072
1655.81748,0.05153
1654.85311,0.05150
1653.88875,0.05135
1652.92438,0.05288
1651.96001,0.05565
1650.99565,0.05814
1650.03128,0.05931
1649.06691,0.06031
1648.10255,0.06099
1647.13818,0.06214
1646.17381,0.06415
1645.20945,0.06656
1644.24508,0.06865
1643.28071,0.07026
1642.31635,0.07197
1641.35198,0.07363
1640.38761,0.07537
1639.42325,0.07700
1638.45888,0.07845
1637.49451,0.07979
1636.53015,0.08084
1635.56578,0.08283
1634.60141,0.08540
1633.63705,0.08807
1632.67268,0.08986
1631.70831,0.09162
1630.74395,0.09329
1629.77958,0.09470
1628.81522,0.09592
1627.85085,0.09716
1626.88648,0.09864
1625.92212,0.09987
1624.95775,0.10057
1623.99338,0.10096
1623.02902,0.10171
1622.06465,0.10263
1621.10028,0.10318
1620.13592,0.10324
1619.17155,0.10294
1618.20718,0.10236
1617.24282,0.10116
1616.27845,0.10029
1615.31408,0.09987
1614.34972,0.09956
1613.38535,0.09868
1612.42098,0.09755
1611.45662,0.09641
1610.49225,0.09500
1609.52788,0.09372
1608.56352,0.09252
1607.59915,0.09143
1606.63478,0.09025
1605.67042,0.08910
1604.70605,0.08807
1603.74168,0.08695
1602.77732,0.08600
1601.81295,0.08506
1600.84858,0.08429
1599.88422,0.08352
1598.91985,0.08279
1597.95548,0.08210
1596.99112,0.08138
1596.02675,0.08082
1595.06238,0.08019
1594.09802,0.07968
1593.13365,0.07919
1592.16928,0.07875
1591.20492,0.07827
1590.24055,0.07770
1589.27618,0.07726
1588.31182,0.07677
1587.34745,0.07632
1586.38308,0.07575
1585.41872,0.07519
1584.45435,0.07461
1583.48998,0.07393
1582.52562,0.07327
1581.56125,0.07245
1580.59688,0.07169
1579.63252,0.07079
1578.66815,0.06983
1577.70378,0.06858
1576.73942,0.06692
1575.77505,0.06576
1574.81068,0.06510
1573.84632,0.06460
1572.88195,0.06342
1571.91758,0.06221
1570.95322,0.06070
1569.98885,0.05877
1569.02448,0.05730
1568.06012,0.05639
1567.09575,0.05563
1566.13139,0.05409
1565.16702,0.05238
1564.20265,0.05086
1563.23829,0.04960
1562.27392,0.04845
1561.30955,0.04654
1560.34519,0.04365
1559.38082,0.04045
1558.41645,0.03885
1557.45209,0.03884
1556.48772,0.03890
1555.52335,0.03797
1554.55899,0.03627
1553.59462,0.03497
1552.63025,0.03404
1551.66589,0.03296
1550.70152,0.03132
1549.73715,0.02985
1548.77279,0.02886
1547.80842,0.02794
1546.84405,0.02678
1545.87969,0.02501
1544.91532,0.02340
1543.95095,0.02219
1542.98659,0.02103
1542.02222,0.01977
1541.05785,0.01808
1540.09349,0.01660
1539.12912,0.01574
1538.16475,0.01606
1537.20039,0.01625
1536.23602,0.01573
1535.27165,0.01477
1534.30729,0.01342
1533.34292,0.01252
1532.37855,0.01205
1531.41419,0.01195
1530.44982,0.01150
1529.48545,0.01078
1528.52109,0.00999
1527.55672,0.00924
1526.59235,0.00865
1525.62799,0.00803
1524.66362,0.00778
1523.69925,0.00749
1522.73489,0.00660
1521.77052,0.00567
1520.80615,0.00548
1519.84179,0.00611
1518.87742,0.00615
1517.91305,0.00550
1516.94869,0.00500
1515.98432,0.00521
1515.01995,0.00578
1514.05559,0.00590
1513.09122,0.00586
1512.12685,0.00576
1511.16249,0.00582
1510.19812,0.00565
1509.23375,0.00512
1508.26939,0.00450
1507.30502,0.00382
1506.34065,0.00421
1505.37629,0.00542
1504.41192,0.00682
1503.44756,0.00739
1502.48319,0.00771
1501.51882,0.00801
1500.55446,0.00818
1499.59009,0.00835
1498.62572,0.00863
1497.66136,0.00894
1496.69699,0.00927
1495.73262,0.00993
1494.76826,0.01092
1493.80389,0.01167
1492.83952,0.01216
1491.87516,0.01223
1490.91079,0.01217
1489.94642,0.01256
1488.98206,0.01352
1488.01769,0.01448
1487.05332,0.01529
1486.08896,0.01628
1485.12459,0.01721
1484.16022,0.01804
1483.19586,0.01873
1482.23149,0.01938
1481.26712,0.02011
1480.30276,0.02099
1479.33839,0.02199
1478.37402,0.02272
1477.40966,0.02328
1476.44529,0.02406
1475.48092,0.02514
1474.51656,0.02591
1473.55219,0.02619
1472.58782,0.02713
1471.62346,0.02895
1470.65909,0.03094
1469.69472,0.03231
1468.73036,0.03347
1467.76599,0.03464
1466.80162,0.03564
1465.83726,0.03646
1464.87289,0.03755
1463.90852,0.03908
1462.94416,0.04057
1461.97979,0.04187
1461.01542,0.04301
1460.05106,0.04383
1459.08669,0.04446
1458.12232,0.04509
1457.15796,0.04646
1456.19359,0.04828
1455.22922,0.05035
1454.26486,0.05208
1453.30049,0.05361
1452.33612,0.05500
1451.37176,0.05637
1450.40739,0.05782
1449.44302,0.05905
1448.47866,0.06037
1447.51429,0.06192
1446.54992,0.06354
1445.58556,0.06502
1444.62119,0.06639
1443.65682,0.06787
1442.69246,0.06928
1441.72809,0.07067
1440.76373,0.07206
1439.79936,0.07346
1438.83499,0.07463
1437.87063,0.07532
1436.90626,0.07654
1435.94189,0.07836
1434.97753,0.08029
1434.01316,0.08159
1433.04879,0.08288
1432.08443,0.08412
1431.12006,0.08510
1430.15569,0.08623
1429.19133,0.08762
1428.22696,0.08912
1427.26259,0.09038
1426.29823,0.09153
1425.33386,0.09244
1424.36949,0.09328
1423.40513,0.09449
1422.44076,0.09585
1421.47639,0.09685
1420.51203,0.09721
1419.54766,0.09779
1418.58329,0.09890
1417.61893,0.10027
1416.65456,0.10147
1415.69019,0.10247
1414.72583,0.10347
1413.76146,0.10430
1412.79709,0.10503
1411.83273,0.10568
1410.86836,0.10642
1409.90399,0.10726
1408.93963,0.10798
1407.97526,0.10870
1407.01089,0.10931
1406.04653,0.10982
1405.08216,0.11042
1404.11779,0.11126
1403.15343,0.11222
1402.18906,0.11296
1401.22469,0.11352
1400.26033,0.11384
1399.29596,0.11429
1398.33159,0.11495
1397.36723,0.11563
1396.40286,0.11588
1395.43849,0.11573
1394.47413,0.11589
1393.50976,0.11661
1392.54539,0.11767
1391.58103,0.11842
1390.61666,0.11894
1389.65229,0.11931
1388.68793,0.11936
1387.72356,0.11937
1386.75919,0.11964
1385.79483,0.12021
1384.83046,0.12062
1383.86609,0.12090
1382.90173,0.12119
1381.93736,0.12143
1380.97299,0.12163
1380.00863,0.12179
1379.04426,0.12194
1378.07989,0.12202
1377.11553,0.12210
1376.15116,0.12208
1375.18680,0.12193
1374.22243,0.12194
1373.25806,0.12217
1372.29370,0.12243
1371.32933,0.12246
1370.36496,0.12241
1369.40060,0.12232
1368.43623,0.12227
1367.47186,0.12225
1366.50750,0.12218
1365.54313,0.12203
1364.57876,0.12168
1363.61440,0.12121
1362.65003,0.12085
1361.68566,0.12076
1360.72130,0.12077
1359.75693,0.12063
1358.79256,0.12037
1357.82820,0.12001
1356.86383,0.11964
1355.89946,0.11922
1354.93510,0.11876
1353.97073,0.11831
1353.00636,0.11788
1352.04200,0.11750
1351.07763,0.11707
1350.11326,0.11659
1349.14890,0.11610
1348.18453,0.11564
1347.22016,0.11514
1346.25580,0.11458
1345.29143,0.11404
1344.32706,0.11350
1343.36270,0.11298
1342.39833,0.11239
1341.43396,0.11166
1340.46960,0.11087
1339.50523,0.11027
1338.54086,0.10988
1337.57650,0.10946
1336.61213,0.10899
1335.64776,0.10849
1334.68340,0.10793
1333.71903,0.10733
1332.75466,0.10677
1331.79030,0.10623
1330.82593,0.10565
1329.86156,0.10512
1328.89720,0.10461
1327.93283,0.10409
1326.96846,0.10355
1326.00410,0.10301
1325.03973,0.10250
1324.07536,0.10201
1323.11100,0.10157
1322.14663,0.10113
1321.18226,0.10064
1320.21790,0.10010
1319.25353,0.09958
1318.28916,0.09916
1317.32480,0.09882
1316.36043,0.09852
1315.39606,0.09822
1314.43170,0.09786
1313.46733,0.09747
1312.50297,0.09721
1311.53860,0.09709
1310.57423,0.09694
1309.60987,0.09668
1308.64550,0.09640
1307.68113,0.09619
1306.71677,0.09605
1305.75240,0.09592
1304.78803,0.09577
1303.82367,0.09563
1302.85930,0.09553
1301.89493,0.09542
1300.93057,0.09533
1299.96620,0.09524
1299.00183,0.09518
1298.03747,0.09515
1297.07310,0.09513
1296.10873,0.09512
1295.14437,0.09517
1294.18000,0.09528
1293.21563,0.09534
1292.25127,0.09534
1291.28690,0.09536
1290.32253,0.09544
1289.35817,0.09554
1288.39380,0.09567
1287.42943,0.09583
1286.46507,0.09600
1285.50070,0.09610
1284.53633,0.09615
1283.57197,0.09627
1282.60760,0.09648
1281.64323,0.09669
1280.67887,0.09686
1279.71450,0.09700
1278.75013,0.09719
1277.78577,0.09740
1276.82140,0.09760
1275.85703,0.09774
1274.89267,0.09789
1273.92830,0.09808
1272.96393,0.09824
1271.99957,0.09837
1271.03520,0.09852
1270.07083,0.09871
1269.10647,0.09892
1268.14210,0.09915
1267.17773,0.09936
1266.21337,0.09954
1265.24900,0.09973
1264.28463,0.09997
1263.32027,0.10024
1262.35590,0.10047
1261.39153,0.10061
1260.42717,0.10071
1259.46280,0.10091
1258.49843,0.10121
1257.53407,0.10146
1256.56970,0.10162
1255.60533,0.10177
1254.64097,0.10195
1253.67660,0.10210
1252.71223,0.10219
1251.74787,0.10226
1250.78350,0.10239
1249.81914,0.10257
1248.85477,0.10280
1247.89040,0.10307
1246.92604,0.10332
1245.96167,0.10348
1244.99730,0.10360
1244.03294,0.10372
1243.06857,0.10370
1242.10420,0.10354
1241.13984,0.10356
1240.17547,0.10383
1239.21110,0.10407
1238.24674,0.10410
1237.28237,0.10402
1236.31800,0.10393
1235.35364,0.10382
1234.38927,0.10372
1233.42490,0.10361
1232.46054,0.10349
1231.49617,0.10333
1230.53180,0.10318
1229.56744,0.10301
1228.60307,0.10278
1227.63870,0.10257
1226.67434,0.10239
1225.70997,0.10221
1224.74560,0.10196
1223.78124,0.10162
1222.81687,0.10121
1221.85250,0.10078
1220.88814,0.10033
1219.92377,0.09981
1218.95940,0.09928
1217.99504,0.09880
1217.03067,0.09830
1216.06630,0.09776
1215.10194,0.09722
1214.13757,0.09673
1213.17320,0.09627
1212.20884,0.09578
1211.24447,0.09528
1210.28010,0.09478
1209.31574,0.09427
1208.35137,0.09381
1207.38700,0.09337
1206.42264,0.09289
1205.45827,0.09243
1204.49390,0.09211
1203.52954,0.09186
1202.56517,0.09151
1201.60080,0.09108
1200.63644,0.09069
1199.67207,0.09041
1198.70770,0.09026
1197.74334,0.09008
1196.77897,0.08982
1195.81460,0.08960
1194.85024,0.08948
1193.88587,0.08936
1192.92150,0.08925
1191.95714,0.08917
1190.99277,0.08904
1190.02840,0.08891
1189.06404,0.08889
1188.09967,0.08896
1187.13531,0.08899
1186.17094,0.08893
1185.20657,0.08886
1184.24221,0.08887
1183.27784,0.08894
1182.31347,0.08894
1181.34911,0.08891
1180.38474,0.08898
1179.42037,0.08911
1178.45601,0.08926
1177.49164,0.08942
1176.52727,0.08955
1175.56291,0.08959
1174.59854,0.08963
1173.63417,0.08971
1172.66981,0.08978
1171.70544,0.08981
1170.74107,0.08987
1169.77671,0.08998
1168.81234,0.09011
1167.84797,0.09019
1166.88361,0.09030
1165.91924,0.09050
1164.95487,0.09071
1163.99051,0.09084
1163.02614,0.09097
1162.06177,0.09111
1161.09741,0.09125
1160.13304,0.09141
1159.16867,0.09158
1158.20431,0.09174
1157.23994,0.09195
1156.27557,0.09223
1155.31121,0.09243
1154.34684,0.09261
1153.38247,0.09287
1152.41811,0.09316
1151.45374,0.09343
1150.48937,0.09374
1149.52501,0.09414
1148.56064,0.09447
1147.59627,0.09467
1146.63191,0.09483
1145.66754,0.09511
1144.70317,0.09547
1143.73881,0.09580
1142.77444,0.09608
1141.81007,0.09640
1140.84571,0.09679
1139.88134,0.09724
1138.91697,0.09772
1137.95261,0.09815
1136.98824,0.09851
1136.02387,0.09893
1135.05951,0.09944
1134.09514,0.09997
1133.13077,0.10050
1132.16641,0.10112
1131.20204,0.10174
1130.23767,0.10230
1129.27331,0.10283
1128.30894,0.10338
1127.34457,0.10393
1126.38021,0.10451
1125.41584,0.10524
1124.45148,0.10601
1123.48711,0.10667
1122.52274,0.10731
1121.55838,0.10803
1120.59401,0.10881
1119.62964,0.10958
1118.66528,0.11036
1117.70091,0.11109
1116.73654,0.11182
1115.77218,0.11256
1114.80781,0.11334
1113.84344,0.11421
1112.87908,0.11515
1111.91471,0.11596
1110.95034,0.11663
1109.98598,0.11741
1109.02161,0.11834
1108.05724,0.11931
1107.09288,0.12025
1106.12851,0.12114
1105.16414,0.12197
1104.19978,0.12282
1103.23541,0.12383
1102.27104,0.12499
1101.30668,0.12617
1100.34231,0.12732
1099.37794,0.12851
1098.41358,0.12974
1097.44921,0.13091
1096.48484,0.13203
1095.52048,0.13326
1094.55611,0.13464
1093.59174,0.13594
1092.62738,0.13703
1091.66301,0.13796
1090.69864,0.13893
1089.73428,0.14009
1088.76991,0.14136
1087.80554,0.14257
1086.84118,0.14359
1085.87681,0.14453
1084.91244,0.14559
1083.94808,0.14672
1082.98371,0.14778
1082.01934,0.14857
1081.05498,0.14909
1080.09061,0.14961
1079.12624,0.15049
1078.16188,0.15161
1077.19751,0.15254
1076.23314,0.15326
1075.26878,0.15396
1074.30441,0.15466
1073.34004,0.15532
1072.37568,0.15588
1071.41131,0.15628
1070.44694,0.15666
1069.48258,0.15709
1068.51821,0.15725
1067.55384,0.15694
1066.58948,0.15661
1065.62511,0.15664
1064.66074,0.15682
1063.69638,0.15685
1062.73201,0.15667
1061.76765,0.15628
1060.80328,0.15579
1059.83891,0.15514
1058.87455,0.15410
1057.91018,0.15282
1056.94581,0.15175
1055.98145,0.15097
1055.01708,0.15021
1054.05271,0.14920
1053.08835,0.14796
1052.12398,0.14665
1051.15961,0.14535
1050.19525,0.14401
1049.23088,0.14254
1048.26651,0.14098
1047.30215,0.13940
1046.33778,0.13792
1045.37341,0.13643
1044.40905,0.13485
1043.44468,0.13326
1042.48031,0.13159
1041.51595,0.12982
1040.55158,0.12808
1039.58721,0.12634
1038.62285,0.12439
1037.65848,0.12232
1036.69411,0.12052
1035.72975,0.11898
1034.76538,0.11742
1033.80101,0.11568
1032.83665,0.11385
1031.87228,0.11205
1030.90791,0.11030
1029.94355,0.10849
1028.97918,0.10639
1028.01481,0.10414
1027.05045,0.10222
1026.08608,0.10077
1025.12171,0.09943
1024.15735,0.09794
1023.19298,0.09636
1022.22861,0.09473
1021.26425,0.09317
1020.29988,0.09169
1019.33551,0.09021
1018.37115,0.08885
1017.40678,0.08771
1016.44241,0.08662
1015.47805,0.08554
1014.51368,0.08456
1013.54931,0.08365
1012.58495,0.08279
1011.62058,0.08200
1010.65621,0.08129
1009.69185,0.08067
1008.72748,0.08014
1007.76311,0.07972
1006.79875,0.07934
1005.83438,0.07896
1004.87001,0.07861
1003.90565,0.07841
1002.94128,0.07829
1001.97691,0.07806
1001.01255,0.07783
1000.04818,0.07774
999.08382,0.07772
998.11945,0.07762
997.15508,0.07747
996.19072,0.07737
995.22635,0.07737
994.26198,0.07739
993.29762,0.07728
992.33325,0.07709
991.36888,0.07686
990.40452,0.07658
989.44015,0.07630
988.47578,0.07603
987.51142,0.07572
986.54705,0.07530
985.58268,0.07484
984.61832,0.07434
983.65395,0.07378
982.68958,0.07330
981.72522,0.07286
980.76085,0.07239
979.79648,0.07182
978.83212,0.07115
977.86775,0.07032
976.90338,0.06938
975.93902,0.06856
974.97465,0.06790
974.01028,0.06722
973.04592,0.06634
972.08155,0.06544
971.11718,0.06456
970.15282,0.06354
969.18845,0.06245
968.22408,0.06149
967.25972,0.06061
966.29535,0.05963
965.33098,0.05854
964.36662,0.05744
963.40225,0.05644
962.43788,0.05553
961.47352,0.05454
960.50915,0.05341
959.54478,0.05227
958.58042,0.05125
957.61605,0.05030
956.65168,0.04929
955.68732,0.04820
954.72295,0.04718
953.75858,0.04627
952.79422,0.04530
951.82985,0.04426
950.86548,0.04327
949.90112,0.04233
948.93675,0.04138
947.97238,0.04038
947.00802,0.03936
946.04365,0.03840
945.07928,0.03753
944.11492,0.03667
943.15055,0.03578
942.18618,0.03491
941.22182,0.03404
940.25745,0.03310
939.29308,0.03207
938.32872,0.03103
937.36435,0.03006
936.39998,0.02912
935.43562,0.02824
934.47125,0.02745
933.50689,0.02668
932.54252,0.02576
931.57815,0.02473
930.61379,0.02380
929.64942,0.02305
928.68505,0.02226
927.72069,0.02135
926.75632,0.02044
925.79195,0.01964
924.82759,0.01891
923.86322,0.01816
922.89885,0.01727
921.93449,0.01636
920.97012,0.01559
920.00575,0.01490
919.04139,0.01420
918.07702,0.01344
917.11265,0.01265
916.14829,0.01192
915.18392,0.01127
914.21955,0.01060
913.25519,0.00998
912.29082,0.00950
911.32645,0.00897
910.36209,0.00833
909.39772,0.00772
908.43335,0.00716
907.46899,0.00655
906.50462,0.00599
905.54025,0.00552
904.57589,0.00506
903.61152,0.00460
902.64715,0.00417
901.68279,0.00373
900.71842,0.00337
899.75405,0.00310
898.78969,0.00281
897.82532,0.00241
896.86095,0.00207
895.89659,0.00187
894.93222,0.00163
893.96785,0.00132
893.00349,0.00112
892.03912,0.00103
891.07475,0.00092
890.11039,0.00081
889.14602,0.00082
888.18165,0.00088
887.21729,0.00084
886.25292,0.00070
885.28855,0.00054
884.32419,0.00036
883.35982,0.00021
882.39545,0.00016
881.43109,0.00012
880.46672,0.00004
879.50235,0.00002
878.53799,0.00005
877.57362,0.00005
876.60925,0.00008
875.64489,0.00018
874.68052,0.00020
873.71615,0.00015
872.75179,0.00021
871.78742,0.00042
870.82306,0.00063
869.85869,0.00082
868.89432,0.00102
867.92996,0.00122
866.96559,0.00144
866.00122,0.00162
865.03686,0.00171
864.07249,0.00180
863.10812,0.00205
862.14376,0.00235
861.17939,0.00251
860.21502,0.00254
859.25066,0.00261
858.28629,0.00278
857.32192,0.00294
856.35756,0.00304
855.39319,0.00323
854.42882,0.00356
853.46446,0.00386
852.50009,0.00402
851.53572,0.00416
850.57136,0.00437
849.60699,0.00461
848.64262,0.00472
847.67826,0.00468
846.71389,0.00473
845.74952,0.00498
844.78516,0.00522
843.82079,0.00528
842.85642,0.00531
841.89206,0.00541
840.92769,0.00545
839.96332,0.00538
838.99896,0.00531
838.03459,0.00535
837.07022,0.00545
836.10586,0.00551
835.14149,0.00554
834.17712,0.00551
833.21276,0.00538
832.24839,0.00518
831.28402,0.00504
830.31966,0.00504
829.35529,0.00504
828.39092,0.00499
827.42656,0.00496
826.46219,0.00491
825.49782,0.00480
824.53346,0.00460
823.56909,0.00443
822.60472,0.00439
821.64036,0.00438
820.67599,0.00425
819.71162,0.00401
818.74726,0.00374
817.78289,0.00345
816.81852,0.00324
815.85416,0.00321
814.88979,0.00321
813.92542,0.00311
812.96106,0.00297
811.99669,0.00287
811.03232,0.00266
810.06796,0.00237
809.10359,0.00227
808.13923,0.00236
807.17486,0.00236
806.21049,0.00222
805.24613,0.00202
804.28176,0.00176
803.31739,0.00156
802.35303,0.00154
801.38866,0.00164
800.42429,0.00164
799.45993,0.00144
798.49556,0.00121
797.53119,0.00110
796.56683,0.00105
795.60246,0.00091
794.63809,0.00079
793.67373,0.00082
792.70936,0.00082
791.74499,0.00071
790.78063,0.00065
789.81626,0.00064
788.85189,0.00054
787.88753,0.00042
786.92316,0.00044
785.95879,0.00054
784.99443,0.00059
784.03006,0.00060
783.06569,0.00052
782.10133,0.00035
781.13696,0.00031
780.17259,0.00054
779.20823,0.00073
778.24386,0.00067
777.27949,0.00056
776.31513,0.00065
775.35076,0.00085
774.38639,0.00100
773.42203,0.00109
772.45766,0.00111
771.49329,0.00112
770.52893,0.00108
769.56456,0.00098
768.60019,0.00096
767.63583,0.00114
766.67146,0.00146
765.70709,0.00162
764.74273,0.00159
763.77836,0.00161
762.81399,0.00173
761.84963,0.00186
760.88526,0.00199
759.92089,0.00220
758.95653,0.00224
757.99216,0.00208
757.02779,0.00215
756.06343,0.00252
755.09906,0.00281
754.13469,0.00284
753.17033,0.00284
752.20596,0.00290
751.24159,0.00299
750.27723,0.00315
749.31286,0.00333
748.34849,0.00352
747.38413,0.00375
746.41976,0.00394
745.45540,0.00403
744.49103,0.00405
743.52666,0.00416
742.56230,0.00437
741.59793,0.00463
740.63356,0.00486
739.66920,0.00497
738.70483,0.00506
737.74046,0.00524
736.77610,0.00548
735.81173,0.00567
734.84736,0.00579
733.88300,0.00590
732.91863,0.00607
731.95426,0.00629
730.98990,0.00652
730.02553,0.00674
729.06116,0.00690
728.09680,0.00704
727.13243,0.00731
726.16806,0.00759
725.20370,0.00773
724.23933,0.00793
723.27496,0.00831
722.31060,0.00853
721.34623,0.00845
720.38186,0.00846
719.41750,0.00872
718.45313,0.00903
717.48876,0.00922
716.52440,0.00943
715.56003,0.00977
714.59566,0.01009
713.63130,0.01029
712.66693,0.01045
711.70256,0.01068
710.73820,0.01088
709.77383,0.01094
708.80946,0.01101
707.84510,0.01118
706.88073,0.01141
705.91636,0.01163
704.95200,0.01186
703.98763,0.01216
703.02326,0.01233
702.05890,0.01236
701.09453,0.01248
700.13016,0.01272
699.16580,0.01282
698.20143,0.01286
697.23706,0.01309
696.27270,0.01332
695.30833,0.01335
694.34396,0.01336
693.37960,0.01354
692.41523,0.01375
691.45086,0.01385
690.48650,0.01382
689.52213,0.01375
688.55776,0.01375
687.59340,0.01388
686.62903,0.01405
685.66466,0.01416
684.70030,0.01422
683.73593,0.01437
682.77157,0.01450
681.80720,0.01450
680.84283,0.01450
679.87847,0.01463
678.91410,0.01486
677.94973,0.01510
676.98537,0.01532
676.02100,0.01550
675.05663,0.01564
674.09227,0.01583
673.12790,0.01615
672.16353,0.01658
671.19917,0.01670
670.23480,0.01565
669.27043,0.01251
668.30607,0.01206
667.34170,0.01490
666.37733,0.01844
665.41297,0.01888
664.44860,0.01881
663.48423,0.01892
662.51987,0.01928
661.55550,0.01971
660.59113,0.01999
659.62677,0.02014
658.66240,0.02027
657.69803,0.02048
656.73367,0.02065
655.76930,0.02062
654.80493,0.02052
653.84057,0.02043
652.87620,0.02032
651.91183,0.02027
650.94747,0.02037
649.98310,0.02038
649.01873,0.02032
648.05437,0.02064
647.09000,0.02116
646.12563,0.02136
645.16127,0.02133
644.19690,0.02145
643.23253,0.02172
642.26817,0.02188
641.30380,0.02202
640.33943,0.02237
639.37507,0.02287
638.41070,0.02323
637.44633,0.02325
636.48197,0.02315
635.51760,0.02320
634.55323,0.02355
633.58887,0.02416
632.62450,0.02461
631.66013,0.02467
630.69577,0.02458
629.73140,0.02452
628.76703,0.02452
627.80267,0.02468
626.83830,0.02505
625.87393,0.02539
624.90957,0.02562
623.94520,0.02580
622.98083,0.02601
622.01647,0.02638
621.05210,0.02663
620.08774,0.02662
619.12337,0.02641
618.15900,0.02621
617.19464,0.02633
616.23027,0.02670
615.26590,0.02705
614.30154,0.02723
613.33717,0.02734
612.37280,0.02737
611.40844,0.02744
610.44407,0.02768
609.47970,0.02781
608.51534,0.02782
607.55097,0.02792
606.58660,0.02807
605.62224,0.02813
604.65787,0.02817
603.69350,0.02829
602.72914,0.02832
601.76477,0.02828
600.80040,0.02825
599.83604,0.02830
598.87167,0.02826
597.90730,0.02791
596.94294,0.02746
595.97857,0.02722
595.01420,0.02718
594.04984,0.02704
593.08547,0.02673
592.12110,0.02638
591.15674,0.02609
590.19237,0.02602
589.22800,0.02611
588.26364,0.02623
587.29927,0.02627
586.33490,0.02623
585.37054,0.02608
584.40617,0.02596
583.44180,0.02613
582.47744,0.02636
581.51307,0.02623
580.54870,0.02595
579.58434,0.02582
578.61997,0.02577
577.65560,0.02576
576.69124,0.02593
575.72687,0.02611
574.76250,0.02614
573.79814,0.02598
572.83377,0.02568
571.86940,0.02545
570.90504,0.02545
569.94067,0.02547
568.97630,0.02540
568.01194,0.02558
567.04757,0.02596
566.08320,0.02613
565.11884,0.02595
564.15447,0.02574
563.19010,0.02577
562.22574,0.02577
561.26137,0.02556
560.29700,0.02537
559.33264,0.02538
558.36827,0.02534
557.40390,0.02512
556.43954,0.02508
555.47517,0.02529
554.51081,0.02546
553.54644,0.02547
552.58207,0.02544
551.61771,0.02556
550.65334,0.02563
549.68897,0.02536
548.72461,0.02494
547.76024,0.02478
546.79587,0.02480
545.83151,0.02468
544.86714,0.02461
543.90277,0.02475
542.93841,0.02483
541.97404,0.02473
541.00967,0.02474
540.04531,0.02487
539.08094,0.02488
538.11657,0.02469
537.15221,0.02454
536.18784,0.02454
535.22347,0.02450
534.25911,0.02433
533.29474,0.02431
532.33037,0.02464
531.36601,0.02489
530.40164,0.02477
529.43727,0.02440
528.47291,0.02400
527.50854,0.02364
526.54417,0.02342
525.57981,0.02349
524.61544,0.02367
523.65107,0.02390
522.68671,0.02420
521.72234,0.02417
520.75797,0.02364
519.79361,0.02313
518.82924,0.02313
517.86487,0.02328
516.90051,0.02335
515.93614,0.02337
514.97177,0.02324
514.00741,0.02305
513.04304,0.02301
512.07867,0.02305
511.11431,0.02286
510.14994,0.02258
509.18557,0.02251
508.22121,0.02254
507.25684,0.02267
506.29247,0.02288
505.32811,0.02314
504.36374,0.02323
503.39937,0.02280
502.43501,0.02192
501.47064,0.02140
500.50627,0.02166
499.54191,0.02198
498.57754,0.02225
497.61317,0.02266
496.64881,0.02266
495.68444,0.02224
494.72007,0.02197
493.75571,0.02179
492.79134,0.02120
491.82698,0.02077
490.86261,0.02093
489.89824,0.02102
488.93388,0.02065
487.96951,0.02030
487.00514,0.02059
486.04078,0.02107
485.07641,0.02103
484.11204,0.02073
483.14768,0.02050
482.18331,0.02009
481.21894,0.01965
480.25458,0.02015
479.29021,0.02092
478.32584,0.02048
477.36148,0.01926
476.39711,0.01877
475.43274,0.01940
474.46838,0.02007
473.50401,0.01973
472.53964,0.01862
471.57528,0.01782
470.61091,0.01763
469.64654,0.01741
468.68218,0.01770
467.71781,0.01882
466.75344,0.01980
465.78908,0.01977
464.82471,0.01905
463.86034,0.01870
462.89598,0.01906
461.93161,0.01922
460.96724,0.01814
460.00288,0.01629
459.03851,0.01507
458.07414,0.01504
457.10978,0.01574
456.14541,0.01638
455.18104,0.01650
454.21668,0.01664
453.25231,0.01638
452.28794,0.01565
451.32358,0.01570
450.35921,0.01672
449.39484,0.01738
448.43048,0.01671
447.46611,0.01543
446.50174,0.01453
445.53738,0.01395
444.57301,0.01359
443.60864,0.01299
442.64428,0.01203
441.67991,0.01155
440.71554,0.01178
439.75118,0.01193
438.78681,0.01172
437.82244,0.01217
436.85808,0.01233
435.89371,0.01107
434.92934,0.01009
433.96498,0.01061
433.00061,0.01132
432.03624,0.01105
431.07188,0.01037
430.10751,0.00998
429.14315,0.01009
428.17878,0.01107
427.21441,0.01174
426.25005,0.01039
425.28568,0.00850
424.32131,0.00836
423.35695,0.00943
422.39258,0.00950
421.42821,0.00813
420.46385,0.00711
419.49948,0.00797
418.53511,0.00944
417.57075,0.00932
416.60638,0.00757
415.64201,0.00633
414.67765,0.00557
413.71328,0.00526
412.74891,0.00578
411.78455,0.00677
410.82018,0.00760
409.85581,0.00774
408.89145,0.00643
407.92708,0.00315
406.96271,0.00033
405.99835,0.00025
405.03398,0.00092
404.06961,0.00082
403.10525,0.00063
402.14088,0.00056
401.17651,0.00087
400.21215,0.00087
399.24778,0.00087
