1900.76660,0.00053
1899.80223,0.00052
1898.83787,0.00052
1897.87350,0.00051
1896.90913,0.00050
1895.94477,0.00049
1894.98040,0.00049
1894.01603,0.00048
1893.05167,0.00047
1892.08730,0.00047
1891.12293,0.00046
1890.15857,0.00045
1889.19420,0.00045
1888.22983,0.00044
1887.26547,0.00043
1886.30110,0.00043
1885.33673,0.00042
1884.37237,0.00041
1883.40800,0.00040
1882.44364,0.00040
1881.47927,0.00039
1880.51490,0.00046
1879.55054,0.00032
1878.58617,0.00010
1877.62180,0.00010
1876.65744,0.00034
1875.69307,0.00050
1874.72870,0.00046
1873.76434,0.00029
1872.79997,0.00006
1871.83560,0.00021
1870.87124,0.00132
1869.90687,0.00299
1868.94250,0.00382
1867.97814,0.00312
1867.01377,0.00179
1866.04940,0.00081
1865.08504,0.00037
1864.12067,0.00019
1863.15630,0.00010
1862.19194,0.00004
1861.22757,0.00005
1860.26320,0.00019
1859.29884,0.00035
1858.33447,0.00039
1857.37010,0.00033
1856.40574,0.00020
1855.44137,0.00010
1854.47700,0.00015
1853.51264,0.00038
1852.54827,0.00053
1851.58390,0.00041
1850.61954,0.00034
1849.65517,0.00078
1848.69080,0.00156
1847.72644,0.00188
1846.76207,0.00196
1845.79770,0.00301
1844.83334,0.00475
1843.86897,0.00515
1842.90460,0.00364
1841.94024,0.00204
1840.97587,0.00154
1840.01150,0.00183
1839.04714,0.00230
1838.08277,0.00270
1837.11840,0.00282
1836.15404,0.00269
1835.18967,0.00267
1834.22530,0.00286
1833.26094,0.00308
1832.29657,0.00371
1831.33220,0.00524
1830.36784,0.00700
1829.40347,0.00722
1828.43910,0.00578
1827.47474,0.00483
1826.51037,0.00570
1825.54600,0.00704
1824.58164,0.00703
1823.61727,0.00611
1822.65290,0.00557
1821.68854,0.00564
1820.72417,0.00576
1819.75981,0.00587
1818.79544,0.00618
1817.83107,0.00653
1816.86671,0.00663
1815.90234,0.00652
1814.93797,0.00647
1813.97361,0.00665
1813.00924,0.00716
1812.04487,0.00790
1811.08051,0.00841
1810.11614,0.00829
1809.15177,0.00787
1808.18741,0.00765
1807.22304,0.00761
1806.25867,0.00752
1805.29431,0.00749
1804.32994,0.00783
1803.36557,0.00857
1802.40121,0.00933
1801.43684,0.00986
1800.47247,0.01016
1799.50811,0.00998
1798.54374,0.00936
1797.57937,0.00905
1796.61501,0.00936
1795.65064,0.00970
1794.68627,0.01021
1793.72191,0.01159
1792.75754,0.01325
1791.79317,0.01357
1790.82881,0.01249
1789.86444,0.01122
1788.90007,0.01065
1787.93571,0.01074
1786.97134,0.01129
1786.00697,0.01215
1785.04261,0.01286
1784.07824,0.01301
1783.11387,0.01305
1782.14951,0.01372
1781.18514,0.01487
1780.22077,0.01557
1779.25641,0.01550
1778.29204,0.01537
1777.32767,0.01587
1776.36331,0.01681
1775.39894,0.01764
1774.43457,0.01905
1773.47021,0.02172
1772.50584,0.02427
1771.54147,0.02438
1770.57711,0.02284
1769.61274,0.02231
1768.64837,0.02340
1767.68401,0.02428
1766.71964,0.02423
1765.75527,0.02414
1764.79091,0.02471
1763.82654,0.02625
1762.86217,0.02848
1761.89781,0.03032
1760.93344,0.03062
1759.96907,0.03026
1759.00471,0.03095
1758.04034,0.03286
1757.07597,0.03459
1756.11161,0.03507
1755.14724,0.03485
1754.18288,0.03520
1753.21851,0.03704
1752.25414,0.03977
1751.28978,0.04193
1750.32541,0.04291
1749.36104,0.04363
1748.39668,0.04443
1747.43231,0.04471
1746.46794,0.04445
1745.50358,0.04478
1744.53921,0.04606
1743.57484,0.04722
1742.61048,0.04747
1741.64611,0.04800
1740.68174,0.04959
1739.71738,0.05097
1738.75301,0.05064
1737.78864,0.04953
1736.82428,0.04962
1735.85991,0.05254
1734.89554,0.05683
1733.93118,0.05865
1732.96681,0.05621
1732.00244,0.05316
1731.03808,0.05239
1730.07371,0.05289
1729.10934,0.05245
1728.14498,0.05160
1727.18061,0.05115
1726.21624,0.05108
1725.25188,0.05119
1724.28751,0.05140
1723.32314,0.05134
1722.35878,0.05067
1721.39441,0.04983
1720.43004,0.05028
1719.46568,0.05282
1718.50131,0.05559
1717.53694,0.05564
1716.57258,0.05340
1715.60821,0.05149
1714.64384,0.05036
1713.67948,0.04875
1712.71511,0.04694
1711.75074,0.04608
1710.78638,0.04585
1709.82201,0.04531
1708.85764,0.04469
1707.89328,0.04492
1706.92891,0.04582
1705.96454,0.04616
1705.00018,0.04525
1704.03581,0.04331
1703.07144,0.04188
1702.10708,0.04424
1701.14271,0.04913
1700.17834,0.05101
1699.21398,0.04649
1698.24961,0.04217
1697.28524,0.04246
1696.32088,0.04489
1695.35651,0.04393
1694.39214,0.04041
1693.42778,0.03764
1692.46341,0.03710
1691.49905,0.03772
1690.53468,0.03845
1689.57031,0.03886
1688.60595,0.03866
1687.64158,0.03793
1686.67721,0.03905
1685.71285,0.04373
1684.74848,0.04895
1683.78411,0.04900
1682.81975,0.04439
1681.85538,0.04076
1680.89101,0.04058
1679.92665,0.04136
1678.96228,0.04117
1677.99791,0.04112
1677.03355,0.04293
1676.06918,0.04587
1675.10481,0.04739
1674.14045,0.04662
1673.17608,0.04606
1672.21171,0.04720
1671.24735,0.04956
1670.28298,0.05195
1669.31861,0.05352
1668.35425,0.05331
1667.38988,0.05220
1666.42551,0.05188
1665.46115,0.05305
1664.49678,0.05543
1663.53241,0.05832
1662.56805,0.06037
1661.60368,0.06087
1660.63931,0.06093
1659.67495,0.06172
1658.71058,0.06316
1657.74621,0.06467
1656.78185,0.06627
1655.81748,0.06919
1654.85311,0.07669
1653.88875,0.08587
1652.92438,0.08956
1651.96001,0.08410
1650.99565,0.07788
1650.03128,0.07678
1649.06691,0.08049
1648.10255,0.08499
1647.13818,0.08853
1646.17381,0.08959
1645.20945,0.08834
1644.24508,0.08719
1643.28071,0.08767
1642.31635,0.08936
1641.35198,0.09106
1640.38761,0.09256
1639.42325,0.09436
1638.45888,0.09667
1637.49451,0.10036
1636.53015,0.10472
1635.56578,0.10741
1634.60141,0.10627
1633.63705,0.10387
1632.67268,0.10311
1631.70831,0.10413
1630.74395,0.10538
1629.77958,0.10696
1628.81522,0.10898
1627.85085,0.11037
1626.88648,0.11035
1625.92212,0.11039
1624.95775,0.11184
1623.99338,0.11386
1623.02902,0.11414
1622.06465,0.11271
1621.10028,0.11126
1620.13592,0.11053
1619.17155,0.11101
1618.20718,0.11291
1617.24282,0.11485
1616.27845,0.11408
1615.31408,0.11098
1614.34972,0.10825
1613.38535,0.10701
1612.42098,0.10640
1611.45662,0.10580
1610.49225,0.10534
1609.52788,0.10475
1608.56352,0.10393
1607.59915,0.10293
1606.63478,0.10183
1605.67042,0.10077
1604.70605,0.09994
1603.74168,0.09938
1602.77732,0.09877
1601.81295,0.09804
1600.84858,0.09723
1599.88422,0.09645
1598.91985,0.09573
1597.95548,0.09511
1596.99112,0.09463
1596.02675,0.09418
1595.06238,0.09367
1594.09802,0.09294
1593.13365,0.09209
1592.16928,0.09128
1591.20492,0.09058
1590.24055,0.08988
1589.27618,0.08904
1588.31182,0.08812
1587.34745,0.08716
1586.38308,0.08623
1585.41872,0.08528
1584.45435,0.08428
1583.48998,0.08325
1582.52562,0.08208
1581.56125,0.08079
1580.59688,0.07934
1579.63252,0.07787
1578.66815,0.07742
1577.70378,0.07846
1576.73942,0.07924
1575.77505,0.07705
1574.81068,0.07277
1573.84632,0.06902
1572.88195,0.06679
1571.91758,0.06594
1570.95322,0.06629
1569.98885,0.06642
1569.02448,0.06409
1568.06012,0.06015
1567.09575,0.05719
1566.13139,0.05610
1565.16702,0.05518
1564.20265,0.05313
1563.23829,0.05043
1562.27392,0.04892
1561.30955,0.05129
1560.34519,0.05731
1559.38082,0.06174
1558.41645,0.05867
1557.45209,0.04990
1556.48772,0.04276
1555.52335,0.04057
1554.55899,0.04017
1553.59462,0.03802
1552.63025,0.03527
1551.66589,0.03413
1550.70152,0.03435
1549.73715,0.03364
1548.77279,0.03130
1547.80842,0.02913
1546.84405,0.02869
1545.87969,0.02942
1544.91532,0.02966
1543.95095,0.02932
1542.98659,0.02921
1542.02222,0.02989
1541.05785,0.03177
1540.09349,0.03325
1539.12912,0.03136
1538.16475,0.02577
1537.20039,0.02068
1536.23602,0.01894
1535.27165,0.02016
1534.30729,0.02187
1533.34292,0.02206
1532.37855,0.02003
1531.41419,0.01750
1530.44982,0.01618
1529.48545,0.01632
1528.52109,0.01690
1527.55672,0.01727
1526.59235,0.01731
1525.62799,0.01695
1524.66362,0.01613
1523.69925,0.01626
1522.73489,0.01839
1521.77052,0.02063
1520.80615,0.01990
1519.84179,0.01677
1518.87742,0.01525
1517.91305,0.01655
1516.94869,0.01792
1515.98432,0.01680
1515.01995,0.01462
1514.05559,0.01352
1513.09122,0.01378
1512.12685,0.01421
1511.16249,0.01444
1510.19812,0.01514
1509.23375,0.01728
1508.26939,0.02145
1507.30502,0.02559
1506.34065,0.02587
1505.37629,0.02135
1504.41192,0.01629
1503.44756,0.01416
1502.48319,0.01438
1501.51882,0.01499
1500.55446,0.01594
1499.59009,0.01720
1498.62572,0.01837
1497.66136,0.01929
1496.69699,0.02004
1495.73262,0.01982
1494.76826,0.01861
1493.80389,0.01764
1492.83952,0.01811
1491.87516,0.02029
1490.91079,0.02304
1489.94642,0.02461
1488.98206,0.02450
1488.01769,0.02410
1487.05332,0.02406
1486.08896,0.02388
1485.12459,0.02365
1484.16022,0.02399
1483.19586,0.02505
1482.23149,0.02638
1481.26712,0.02747
1480.30276,0.02808
1479.33839,0.02854
1478.37402,0.02981
1477.40966,0.03197
1476.44529,0.03391
1475.48092,0.03492
1474.51656,0.03650
1473.55219,0.03949
1472.58782,0.04184
1471.62346,0.04162
1470.65909,0.04005
1469.69472,0.03956
1468.73036,0.04045
1467.76599,0.04184
1466.80162,0.04385
1465.83726,0.04643
1464.87289,0.04840
1463.90852,0.04866
1462.94416,0.04833
1461.97979,0.04871
1461.01542,0.05020
1460.05106,0.05277
1459.08669,0.05671
1458.12232,0.06107
1457.15796,0.06363
1456.19359,0.06306
1455.22922,0.06094
1454.26486,0.05966
1453.30049,0.06019
1452.33612,0.06153
1451.37176,0.06270
1450.40739,0.06378
1449.44302,0.06554
1448.47866,0.06770
1447.51429,0.06905
1446.54992,0.06936
1445.58556,0.06966
1444.62119,0.07056
1443.65682,0.07169
1442.69246,0.07275
1441.72809,0.07379
1440.76373,0.07482
1439.79936,0.07583
1438.83499,0.07771
1437.87063,0.08083
1436.90626,0.08363
1435.94189,0.08399
1434.97753,0.08290
1434.01316,0.08250
1433.04879,0.08330
1432.08443,0.08454
1431.12006,0.08612
1430.15569,0.08762
1429.19133,0.08832
1428.22696,0.08837
1427.26259,0.08863
1426.29823,0.08964
1425.33386,0.09137
1424.36949,0.09317
1423.40513,0.09400
1422.44076,0.09396
1421.47639,0.09496
1420.51203,0.09790
1419.54766,0.10106
1418.58329,0.10203
1417.61893,0.10136
1416.65456,0.10075
1415.69019,0.10090
1414.72583,0.10136
1413.76146,0.10208
1412.79709,0.10307
1411.83273,0.10409
1410.86836,0.10495
1409.90399,0.10561
1408.93963,0.10609
1407.97526,0.10652
1407.01089,0.10734
1406.04653,0.10857
1405.08216,0.10954
1404.11779,0.10960
1403.15343,0.10920
1402.18906,0.10910
1401.22469,0.10979
1400.26033,0.11110
1399.29596,0.11217
1398.33159,0.11209
1397.36723,0.11154
1396.40286,0.11186
1395.43849,0.11275
1394.47413,0.11261
1393.50976,0.11117
1392.54539,0.10978
1391.58103,0.10919
1390.61666,0.10900
1389.65229,0.10911
1388.68793,0.10977
1387.72356,0.11035
1386.75919,0.10982
1385.79483,0.10848
1384.83046,0.10738
1383.86609,0.10689
1382.90173,0.10665
1381.93736,0.10638
1380.97299,0.10608
1380.00863,0.10582
1379.04426,0.10556
1378.07989,0.10522
1377.11553,0.10495
1376.15116,0.10514
1375.18680,0.10569
1374.22243,0.10574
1373.25806,0.10479
1372.29370,0.10345
1371.32933,0.10255
1370.36496,0.10230
1369.40060,0.10228
1368.43623,0.10201
1367.47186,0.10133
1366.50750,0.10057
1365.54313,0.10028
1364.57876,0.10074
1363.61440,0.10142
1362.65003,0.10140
1361.68566,0.10045
1360.72130,0.09917
1359.75693,0.09815
1358.79256,0.09747
1357.82820,0.09696
1356.86383,0.09655
1355.89946,0.09621
1354.93510,0.09583
1353.97073,0.09525
1353.00636,0.09452
1352.04200,0.09390
1351.07763,0.09347
1350.11326,0.09309
1349.14890,0.09263
1348.18453,0.09205
1347.22016,0.09145
1346.25580,0.09088
1345.29143,0.09032
1344.32706,0.08978
1343.36270,0.08927
1342.39833,0.08902
1341.43396,0.08923
1340.46960,0.08959
1339.50523,0.08942
1338.54086,0.08860
1337.57650,0.08759
1336.61213,0.08671
1335.64776,0.08593
1334.68340,0.08526
1333.71903,0.08477
1332.75466,0.08438
1331.79030,0.08396
1330.82593,0.08352
1329.86156,0.08308
1328.89720,0.08264
1327.93283,0.08221
1326.96846,0.08177
1326.00410,0.08133
1325.03973,0.08092
1324.07536,0.08054
1323.11100,0.08012
1322.14663,0.07968
1321.18226,0.07931
1320.21790,0.07905
1319.25353,0.07875
1318.28916,0.07828
1317.32480,0.07766
1316.36043,0.07701
1315.39606,0.07643
1314.43170,0.07600
1313.46733,0.07563
1312.50297,0.07509
1311.53860,0.07435
1310.57423,0.07365
1309.60987,0.07316
1308.64550,0.07278
1307.68113,0.07234
1306.71677,0.07184
1305.75240,0.07136
1304.78803,0.07092
1303.82367,0.07054
1302.85930,0.07019
1301.89493,0.06982
1300.93057,0.06944
1299.96620,0.06910
1299.00183,0.06886
1298.03747,0.06871
1297.07310,0.06859
1296.10873,0.06843
1295.14437,0.06823
1294.18000,0.06803
1293.21563,0.06788
1292.25127,0.06779
1291.28690,0.06772
1290.32253,0.06766
1289.35817,0.06762
1288.39380,0.06763
1287.42943,0.06763
1286.46507,0.06754
1285.50070,0.06744
1284.53633,0.06738
1283.57197,0.06735
1282.60760,0.06733
1281.64323,0.06732
1280.67887,0.06731
1279.71450,0.06725
1278.75013,0.06718
1277.78577,0.06716
1276.82140,0.06722
1275.85703,0.06732
1274.89267,0.06738
1273.92830,0.06744
1272.96393,0.06757
1271.99957,0.06774
1271.03520,0.06787
1270.07083,0.06795
1269.10647,0.06802
1268.14210,0.06810
1267.17773,0.06824
1266.21337,0.06842
1265.24900,0.06857
1264.28463,0.06865
1263.32027,0.06876
1262.35590,0.06903
1261.39153,0.06939
1260.42717,0.06964
1259.46280,0.06972
1258.49843,0.06974
1257.53407,0.06983
1256.56970,0.06997
1255.60533,0.07011
1254.64097,0.07023
1253.67660,0.07036
1252.71223,0.07052
1251.74787,0.07068
1250.78350,0.07082
1249.81914,0.07095
1248.85477,0.07108
1247.89040,0.07120
1246.92604,0.07132
1245.96167,0.07142
1244.99730,0.07155
1244.03294,0.07170
1243.06857,0.07184
1242.10420,0.07194
1241.13984,0.07200
1240.17547,0.07206
1239.21110,0.07214
1238.24674,0.07223
1237.28237,0.07228
1236.31800,0.07232
1235.35364,0.07235
1234.38927,0.07237
1233.42490,0.07231
1232.46054,0.07224
1231.49617,0.07222
1230.53180,0.07222
1229.56744,0.07217
1228.60307,0.07206
1227.63870,0.07197
1226.67434,0.07191
1225.70997,0.07186
1224.74560,0.07175
1223.78124,0.07158
1222.81687,0.07134
1221.85250,0.07105
1220.88814,0.07075
1219.92377,0.07048
1218.95940,0.07025
1217.99504,0.07001
1217.03067,0.06975
1216.06630,0.06944
1215.10194,0.06910
1214.13757,0.06876
1213.17320,0.06841
1212.20884,0.06804
1211.24447,0.06763
1210.28010,0.06727
1209.31574,0.06700
1208.35137,0.06674
1207.38700,0.06642
1206.42264,0.06610
1205.45827,0.06581
1204.49390,0.06551
1203.52954,0.06518
1202.56517,0.06487
1201.60080,0.06460
1200.63644,0.06431
1199.67207,0.06399
1198.70770,0.06369
1197.74334,0.06345
1196.77897,0.06322
1195.81460,0.06294
1194.85024,0.06259
1193.88587,0.06224
1192.92150,0.06198
1191.95714,0.06181
1190.99277,0.06170
1190.02840,0.06158
1189.06404,0.06139
1188.09967,0.06115
1187.13531,0.06097
1186.17094,0.06086
1185.20657,0.06075
1184.24221,0.06061
1183.27784,0.06048
1182.31347,0.06036
1181.34911,0.06026
1180.38474,0.06014
1179.42037,0.06002
1178.45601,0.05993
1177.49164,0.05987
1176.52727,0.05984
1175.56291,0.05980
1174.59854,0.05973
1173.63417,0.05964
1172.66981,0.05959
1171.70544,0.05957
1170.74107,0.05956
1169.77671,0.05954
1168.81234,0.05956
1167.84797,0.05959
1166.88361,0.05962
1165.91924,0.05967
1164.95487,0.05972
1163.99051,0.05972
1163.02614,0.05966
1162.06177,0.05961
1161.09741,0.05960
1160.13304,0.05959
1159.16867,0.05961
1158.20431,0.05970
1157.23994,0.05980
1156.27557,0.05989
1155.31121,0.05999
1154.34684,0.06010
1153.38247,0.06022
1152.41811,0.06037
1151.45374,0.06056
1150.48937,0.06073
1149.52501,0.06089
1148.56064,0.06110
1147.59627,0.06131
1146.63191,0.06149
1145.66754,0.06171
1144.70317,0.06205
1143.73881,0.06238
1142.77444,0.06262
1141.81007,0.06284
1140.84571,0.06311
1139.88134,0.06339
1138.91697,0.06371
1137.95261,0.06411
1136.98824,0.06455
1136.02387,0.06493
1135.05951,0.06521
1134.09514,0.06549
1133.13077,0.06593
1132.16641,0.06652
1131.20204,0.06708
1130.23767,0.06749
1129.27331,0.06786
1128.30894,0.06832
1127.34457,0.06885
1126.38021,0.06931
1125.41584,0.06973
1124.45148,0.07026
1123.48711,0.07091
1122.52274,0.07152
1121.55838,0.07204
1120.59401,0.07255
1119.62964,0.07312
1118.66528,0.07370
1117.70091,0.07423
1116.73654,0.07478
1115.77218,0.07537
1114.80781,0.07598
1113.84344,0.07659
1112.87908,0.07727
1111.91471,0.07796
1110.95034,0.07855
1109.98598,0.07903
1109.02161,0.07949
1108.05724,0.08003
1107.09288,0.08065
1106.12851,0.08129
1105.16414,0.08183
1104.19978,0.08229
1103.23541,0.08274
1102.27104,0.08323
1101.30668,0.08377
1100.34231,0.08434
1099.37794,0.08495
1098.41358,0.08562
1097.44921,0.08633
1096.48484,0.08704
1095.52048,0.08768
1094.55611,0.08825
1093.59174,0.08888
1092.62738,0.08957
1091.66301,0.09023
1090.69864,0.09078
1089.73428,0.09129
1088.76991,0.09183
1087.80554,0.09242
1086.84118,0.09294
1085.87681,0.09330
1084.91244,0.09365
1083.94808,0.09418
1082.98371,0.09483
1082.01934,0.09541
1081.05498,0.09575
1080.09061,0.09587
1079.12624,0.09590
1078.16188,0.09601
1077.19751,0.09628
1076.23314,0.09661
1075.26878,0.09679
1074.30441,0.09679
1073.34004,0.09676
1072.37568,0.09677
1071.41131,0.09673
1070.44694,0.09656
1069.48258,0.09627
1068.51821,0.09591
1067.55384,0.09561
1066.58948,0.09542
1065.62511,0.09518
1064.66074,0.09476
1063.69638,0.09416
1062.73201,0.09353
1061.76765,0.09299
1060.80328,0.09249
1059.83891,0.09188
1058.87455,0.09114
1057.91018,0.09042
1056.94581,0.08973
1055.98145,0.08895
1055.01708,0.08804
1054.05271,0.08717
1053.08835,0.08641
1052.12398,0.08558
1051.15961,0.08460
1050.19525,0.08352
1049.23088,0.08246
1048.26651,0.08146
1047.30215,0.08048
1046.33778,0.07948
1045.37341,0.07844
1044.40905,0.07738
1043.44468,0.07633
1042.48031,0.07531
1041.51595,0.07428
1040.55158,0.07317
1039.58721,0.07201
1038.62285,0.07091
1037.65848,0.06989
1036.69411,0.06888
1035.72975,0.06783
1034.76538,0.06673
1033.80101,0.06556
1032.83665,0.06437
1031.87228,0.06320
1030.90791,0.06211
1029.94355,0.06110
1028.97918,0.06010
1028.01481,0.05909
1027.05045,0.05815
1026.08608,0.05726
1025.12171,0.05633
1024.15735,0.05534
1023.19298,0.05435
1022.22861,0.05341
1021.26425,0.05255
1020.29988,0.05176
1019.33551,0.05103
1018.37115,0.05030
1017.40678,0.04957
1016.44241,0.04886
1015.47805,0.04820
1014.51368,0.04764
1013.54931,0.04714
1012.58495,0.04660
1011.62058,0.04604
1010.65621,0.04555
1009.69185,0.04517
1008.72748,0.04485
1007.76311,0.04455
1006.79875,0.04432
1005.83438,0.04416
1004.87001,0.04407
1003.90565,0.04401
1002.94128,0.04395
1001.97691,0.04386
1001.01255,0.04375
1000.04818,0.04365
999.08382,0.04354
998.11945,0.04339
997.15508,0.04321
996.19072,0.04309
995.22635,0.04305
994.26198,0.04299
993.29762,0.04286
992.33325,0.04266
991.36888,0.04249
990.40452,0.04238
989.44015,0.04231
988.47578,0.04223
987.51142,0.04214
986.54705,0.04204
985.58268,0.04191
984.61832,0.04182
983.65395,0.04179
982.68958,0.04171
981.72522,0.04143
980.76085,0.04098
979.79648,0.04059
978.83212,0.04033
977.86775,0.04010
976.90338,0.03980
975.93902,0.03938
974.97465,0.03887
974.01028,0.03836
973.04592,0.03798
972.08155,0.03769
971.11718,0.03732
970.15282,0.03683
969.18845,0.03635
968.22408,0.03588
967.25972,0.03538
966.29535,0.03487
965.33098,0.03439
964.36662,0.03392
963.40225,0.03344
962.43788,0.03295
961.47352,0.03247
960.50915,0.03197
959.54478,0.03142
958.58042,0.03082
957.61605,0.03025
956.65168,0.02976
955.68732,0.02934
954.72295,0.02894
953.75858,0.02850
952.79422,0.02803
951.82985,0.02758
950.86548,0.02720
949.90112,0.02684
948.93675,0.02642
947.97238,0.02596
947.00802,0.02555
946.04365,0.02522
945.07928,0.02494
944.11492,0.02467
943.15055,0.02440
942.18618,0.02414
941.22182,0.02385
940.25745,0.02352
939.29308,0.02316
938.32872,0.02281
937.36435,0.02244
936.39998,0.02204
935.43562,0.02167
934.47125,0.02136
933.50689,0.02106
932.54252,0.02069
931.57815,0.02033
930.61379,0.01998
929.64942,0.01959
928.68505,0.01912
927.72069,0.01865
926.75632,0.01828
925.79195,0.01804
924.82759,0.01782
923.86322,0.01751
922.89885,0.01711
921.93449,0.01673
920.97012,0.01645
920.00575,0.01621
919.04139,0.01594
918.07702,0.01560
917.11265,0.01520
916.14829,0.01476
915.18392,0.01436
914.21955,0.01402
913.25519,0.01373
912.29082,0.01341
911.32645,0.01304
910.36209,0.01270
909.39772,0.01242
908.43335,0.01211
907.46899,0.01170
906.50462,0.01129
905.54025,0.01099
904.57589,0.01070
903.61152,0.01032
902.64715,0.00991
901.68279,0.00960
900.71842,0.00942
899.75405,0.00928
898.78969,0.00908
897.82532,0.00878
896.86095,0.00840
895.89659,0.00805
894.93222,0.00785
893.96785,0.00774
893.00349,0.00761
892.03912,0.00744
891.07475,0.00728
890.11039,0.00711
889.14602,0.00688
888.18165,0.00661
887.21729,0.00637
886.25292,0.00617
885.28855,0.00602
884.32419,0.00595
883.35982,0.00596
882.39545,0.00597
881.43109,0.00593
880.46672,0.00587
879.50235,0.00583
878.53799,0.00573
877.57362,0.00559
876.60925,0.00549
875.64489,0.00546
874.68052,0.00542
873.71615,0.00537
872.75179,0.00533
871.78742,0.00529
870.82306,0.00520
869.85869,0.00509
868.89432,0.00506
867.92996,0.00512
866.96559,0.00520
866.00122,0.00526
865.03686,0.00525
864.07249,0.00521
863.10812,0.00523
862.14376,0.00525
861.17939,0.00515
860.21502,0.00501
859.25066,0.00502
858.28629,0.00516
857.32192,0.00528
856.35756,0.00538
855.39319,0.00536
854.42882,0.00518
853.46446,0.00499
852.50009,0.00496
851.53572,0.00505
850.57136,0.00511
849.60699,0.00510
848.64262,0.00505
847.67826,0.00502
846.71389,0.00503
845.74952,0.00505
844.78516,0.00509
843.82079,0.00510
842.85642,0.00499
841.89206,0.00484
840.92769,0.00476
839.96332,0.00477
838.99896,0.00478
838.03459,0.00477
837.07022,0.00478
836.10586,0.00479
835.14149,0.00477
834.17712,0.00469
833.21276,0.00459
832.24839,0.00451
831.28402,0.00448
830.31966,0.00445
829.35529,0.00439
828.39092,0.00431
827.42656,0.00432
826.46219,0.00445
825.49782,0.00458
824.53346,0.00451
823.56909,0.00423
822.60472,0.00386
821.64036,0.00354
820.67599,0.00328
819.71162,0.00304
818.74726,0.00280
817.78289,0.00262
816.81852,0.00255
815.85416,0.00255
814.88979,0.00253
813.92542,0.00246
812.96106,0.00235
811.99669,0.00217
811.03232,0.00194
810.06796,0.00179
809.10359,0.00179
808.13923,0.00183
807.17486,0.00179
806.21049,0.00173
805.24613,0.00173
804.28176,0.00174
803.31739,0.00170
802.35303,0.00157
801.38866,0.00141
800.42429,0.00128
799.45993,0.00120
798.49556,0.00110
797.53119,0.00096
796.56683,0.00087
795.60246,0.00094
794.63809,0.00105
793.67373,0.00098
792.70936,0.00071
791.74499,0.00049
790.78063,0.00047
789.81626,0.00054
788.85189,0.00054
787.88753,0.00050
786.92316,0.00043
785.95879,0.00032
784.99443,0.00023
784.03006,0.00023
783.06569,0.00022
782.10133,0.00014
781.13696,0.00007
780.17259,0.00006
779.20823,0.00009
778.24386,0.00008
777.27949,0.00009
776.31513,0.00014
775.35076,0.00013
774.38639,0.00006
773.42203,0.00005
772.45766,0.00014
771.49329,0.00020
770.52893,0.00017
769.56456,0.00009
768.60019,0.00006
767.63583,0.00010
766.67146,0.00020
765.70709,0.00025
764.74273,0.00018
763.77836,0.00008
762.81399,0.00009
761.84963,0.00019
760.88526,0.00027
759.92089,0.00029
758.95653,0.00037
757.99216,0.00052
757.02779,0.00064
756.06343,0.00068
755.09906,0.00073
754.13469,0.00085
753.17033,0.00099
752.20596,0.00104
751.24159,0.00107
750.27723,0.00119
749.31286,0.00134
748.34849,0.00143
747.38413,0.00154
746.41976,0.00177
745.45540,0.00206
744.49103,0.00225
743.52666,0.00235
742.56230,0.00250
741.59793,0.00274
740.63356,0.00294
739.66920,0.00299
738.70483,0.00292
737.74046,0.00283
736.77610,0.00282
735.81173,0.00295
734.84736,0.00322
733.88300,0.00348
732.91863,0.00361
731.95426,0.00364
730.98990,0.00370
730.02553,0.00389
729.06116,0.00412
728.09680,0.00429
727.13243,0.00438
726.16806,0.00451
725.20370,0.00468
724.23933,0.00480
723.27496,0.00488
722.31060,0.00504
721.34623,0.00534
720.38186,0.00560
719.41750,0.00564
718.45313,0.00560
717.48876,0.00570
716.52440,0.00590
715.56003,0.00606
714.59566,0.00614
713.63130,0.00621
712.66693,0.00628
711.70256,0.00639
710.73820,0.00659
709.77383,0.00686
708.80946,0.00712
707.84510,0.00731
706.88073,0.00739
705.91636,0.00737
704.95200,0.00736
703.98763,0.00746
703.02326,0.00767
702.05890,0.00782
701.09453,0.00772
700.13016,0.00747
699.16580,0.00736
698.20143,0.00755
697.23706,0.00784
696.27270,0.00800
695.30833,0.00800
694.34396,0.00795
693.37960,0.00796
692.41523,0.00807
691.45086,0.00825
690.48650,0.00837
689.52213,0.00838
688.55776,0.00837
687.59340,0.00841
686.62903,0.00850
685.66466,0.00861
684.70030,0.00863
683.73593,0.00856
682.77157,0.00850
681.80720,0.00853
680.84283,0.00860
679.87847,0.00864
678.91410,0.00862
677.94973,0.00858
676.98537,0.00858
676.02100,0.00864
675.05663,0.00867
674.09227,0.00857
673.12790,0.00848
672.16353,0.00845
671.19917,0.00834
670.23480,0.01000
669.27043,0.01361
668.30607,0.01629
667.34170,0.01429
666.37733,0.01052
665.41297,0.00854
664.44860,0.00880
663.48423,0.00917
662.51987,0.00945
661.55550,0.00983
660.59113,0.01019
659.62677,0.01039
658.66240,0.01046
657.69803,0.01053
656.73367,0.01067
655.76930,0.01080
654.80493,0.01087
653.84057,0.01087
652.87620,0.01081
651.91183,0.01076
650.94747,0.01085
649.98310,0.01109
649.01873,0.01135
648.05437,0.01151
647.09000,0.01157
646.12563,0.01155
645.16127,0.01149
644.19690,0.01138
643.23253,0.01132
642.26817,0.01138
641.30380,0.01154
640.33943,0.01165
639.37507,0.01167
638.41070,0.01166
637.44633,0.01174
636.48197,0.01188
635.51760,0.01193
634.55323,0.01187
633.58887,0.01181
632.62450,0.01180
631.66013,0.01184
630.69577,0.01194
629.73140,0.01213
628.76703,0.01232
627.80267,0.01252
626.83830,0.01276
625.87393,0.01295
624.90957,0.01292
623.94520,0.01273
622.98083,0.01263
622.01647,0.01277
621.05210,0.01304
620.08774,0.01328
619.12337,0.01343
618.15900,0.01351
617.19464,0.01352
616.23027,0.01350
615.26590,0.01352
614.30154,0.01357
613.33717,0.01360
612.37280,0.01359
611.40844,0.01349
610.44407,0.01328
609.47970,0.01312
608.51534,0.01317
607.55097,0.01327
606.58660,0.01330
605.62224,0.01330
604.65787,0.01332
603.69350,0.01328
602.72914,0.01324
601.76477,0.01327
600.80040,0.01321
599.83604,0.01298
598.87167,0.01278
597.90730,0.01279
596.94294,0.01284
595.97857,0.01276
595.01420,0.01262
594.04984,0.01261
593.08547,0.01286
592.12110,0.01309
591.15674,0.01291
590.19237,0.01242
589.22800,0.01217
588.26364,0.01240
587.29927,0.01272
586.33490,0.01276
585.37054,0.01256
584.40617,0.01236
583.44180,0.01230
582.47744,0.01247
581.51307,0.01281
580.54870,0.01297
579.58434,0.01277
578.61997,0.01253
577.65560,0.01257
576.69124,0.01277
575.72687,0.01282
574.76250,0.01271
573.79814,0.01265
572.83377,0.01273
571.86940,0.01294
570.90504,0.01313
569.94067,0.01315
568.97630,0.01302
568.01194,0.01289
567.04757,0.01277
566.08320,0.01254
565.11884,0.01229
564.15447,0.01222
563.19010,0.01228
562.22574,0.01233
561.26137,0.01236
560.29700,0.01246
559.33264,0.01255
558.36827,0.01259
557.40390,0.01259
556.43954,0.01259
555.47517,0.01268
554.51081,0.01281
553.54644,0.01284
552.58207,0.01271
551.61771,0.01265
550.65334,0.01283
549.68897,0.01307
548.72461,0.01299
547.76024,0.01253
546.79587,0.01205
545.83151,0.01191
544.86714,0.01207
543.90277,0.01224
542.93841,0.01227
541.97404,0.01235
541.00967,0.01248
540.04531,0.01229
539.08094,0.01171
538.11657,0.01131
537.15221,0.01147
536.18784,0.01182
535.22347,0.01191
534.25911,0.01177
533.29474,0.01165
532.33037,0.01176
531.36601,0.01207
530.40164,0.01224
529.43727,0.01209
528.47291,0.01200
527.50854,0.01229
526.54417,0.01272
525.57981,0.01279
524.61544,0.01242
523.65107,0.01185
522.68671,0.01134
521.72234,0.01112
520.75797,0.01128
519.79361,0.01171
518.82924,0.01239
517.86487,0.01315
516.90051,0.01324
515.93614,0.01231
514.97177,0.01128
514.00741,0.01103
513.04304,0.01132
512.07867,0.01172
511.11431,0.01204
510.14994,0.01200
509.18557,0.01159
508.22121,0.01124
507.25684,0.01101
506.29247,0.01059
505.32811,0.01019
504.36374,0.01045
503.39937,0.01126
502.43501,0.01185
501.47064,0.01167
500.50627,0.01102
499.54191,0.01061
498.57754,0.01073
497.61317,0.01101
496.64881,0.01104
495.68444,0.01080
494.72007,0.01050
493.75571,0.01039
492.79134,0.01055
491.82698,0.01071
490.86261,0.01065
489.89824,0.01053
488.93388,0.01066
487.96951,0.01096
487.00514,0.01111
486.04078,0.01113
485.07641,0.01136
484.11204,0.01166
483.14768,0.01136
482.18331,0.01031
481.21894,0.00916
480.25458,0.00861
479.29021,0.00879
478.32584,0.00941
477.36148,0.01007
476.39711,0.01026
475.43274,0.00991
474.46838,0.01025
473.50401,0.01193
472.53964,0.01343
471.57528,0.01279
470.61091,0.01088
469.64654,0.00971
468.68218,0.00981
467.71781,0.01021
466.75344,0.01004
465.78908,0.00936
464.82471,0.00886
463.86034,0.00887
462.89598,0.00889
461.93161,0.00849
460.96724,0.00811
460.00288,0.00866
459.03851,0.01016
458.07414,0.01128
457.10978,0.01070
456.14541,0.00896
455.18104,0.00733
454.21668,0.00664
453.25231,0.00673
452.28794,0.00696
451.32358,0.00677
450.35921,0.00639
449.39484,0.00643
448.43048,0.00679
447.46611,0.00695
446.50174,0.00685
445.53738,0.00716
444.57301,0.00812
443.60864,0.00877
442.64428,0.00816
441.67991,0.00663
440.71554,0.00521
439.75118,0.00445
438.78681,0.00437
437.82244,0.00496
436.85808,0.00580
435.89371,0.00619
434.92934,0.00580
433.96498,0.00502
433.00061,0.00443
432.03624,0.00443
431.07188,0.00505
430.10751,0.00586
429.14315,0.00621
428.17878,0.00596
427.21441,0.00580
426.25005,0.00603
425.28568,0.00601
424.32131,0.00545
423.35695,0.00452
422.39258,0.00303
421.42821,0.00266
420.46385,0.00623
419.49948,0.01229
418.53511,0.01458
417.57075,0.01074
416.60638,0.00525
415.64201,0.00252
414.67765,0.00212
413.71328,0.00178
412.74891,0.00104
411.78455,0.00031
410.82018,0.00001
409.85581,0.00060
408.89145,0.00180
407.92708,0.00237
406.96271,0.00225
405.99835,0.00296
405.03398,0.00452
404.06961,0.00479
403.10525,0.00289
402.14088,0.00090
401.17651,0.00024
400.21215,0.00024
399.24778,0.00024
