1900.76660,0.00024
1899.80223,0.00030
1898.83787,0.00037
1897.87350,0.00043
1896.90913,0.00050
1895.94477,0.00056
1894.98040,0.00062
1894.01603,0.00069
1893.05167,0.00075
1892.08730,0.00082
1891.12293,0.00088
1890.15857,0.00094
1889.19420,0.00101
1888.22983,0.00107
1887.26547,0.00114
1886.30110,0.00120
1885.33673,0.00126
1884.37237,0.00133
1883.40800,0.00139
1882.44364,0.00146
1881.47927,0.00152
1880.51490,0.00155
1879.55054,0.00152
1878.58617,0.00162
1877.62180,0.00196
1876.65744,0.00229
1875.69307,0.00246
1874.72870,0.00244
1873.76434,0.00241
1872.79997,0.00256
1871.83560,0.00280
1870.87124,0.00286
1869.90687,0.00277
1868.94250,0.00296
1867.97814,0.00350
1867.01377,0.00403
1866.04940,0.00433
1865.08504,0.00454
1864.12067,0.00486
1863.15630,0.00522
1862.19194,0.00557
1861.22757,0.00587
1860.26320,0.00623
1859.29884,0.00672
1858.33447,0.00726
1857.37010,0.00772
1856.40574,0.00804
1855.44137,0.00838
1854.47700,0.00880
1853.51264,0.00926
1852.54827,0.00980
1851.58390,0.01042
1850.61954,0.01111
1849.65517,0.01174
1848.69080,0.01241
1847.72644,0.01318
1846.76207,0.01390
1845.79770,0.01454
1844.83334,0.01533
1843.86897,0.01647
1842.90460,0.01757
1841.94024,0.01847
1840.97587,0.01925
1840.01150,0.02001
1839.04714,0.02074
1838.08277,0.02159
1837.11840,0.02260
1836.15404,0.02357
1835.18967,0.02445
1834.22530,0.02538
1833.26094,0.02641
1832.29657,0.02727
1831.33220,0.02790
1830.36784,0.02872
1829.40347,0.02993
1828.43910,0.03115
1827.47474,0.03187
1826.51037,0.03234
1825.54600,0.03300
1824.58164,0.03395
1823.61727,0.03486
1822.65290,0.03551
1821.68854,0.03601
1820.72417,0.03646
1819.75981,0.03697
1818.79544,0.03749
1817.83107,0.03806
1816.86671,0.03862
1815.90234,0.03907
1814.93797,0.03942
1813.97361,0.03974
1813.00924,0.04011
1812.04487,0.04045
1811.08051,0.04078
1810.11614,0.04114
1809.15177,0.04143
1808.18741,0.04165
1807.22304,0.04186
1806.25867,0.04214
1805.29431,0.04240
1804.32994,0.04261
1803.36557,0.04289
1802.40121,0.04328
1801.43684,0.04373
1800.47247,0.04413
1799.50811,0.04457
1798.54374,0.04500
1797.57937,0.04541
1796.61501,0.04588
1795.65064,0.04640
1794.68627,0.04686
1793.72191,0.04734
1792.75754,0.04820
1791.79317,0.04934
1790.82881,0.05043
1789.86444,0.05133
1788.90007,0.05214
1787.93571,0.05300
1786.97134,0.05393
1786.00697,0.05505
1785.04261,0.05635
1784.07824,0.05770
1783.11387,0.05888
1782.14951,0.06002
1781.18514,0.06141
1780.22077,0.06305
1779.25641,0.06469
1778.29204,0.06613
1777.32767,0.06761
1776.36331,0.06934
1775.39894,0.07114
1774.43457,0.07270
1773.47021,0.07429
1772.50584,0.07656
1771.54147,0.07919
1770.57711,0.08137
1769.61274,0.08300
1768.64837,0.08491
1767.68401,0.08729
1766.71964,0.08954
1765.75527,0.09159
1764.79091,0.09352
1763.82654,0.09536
1762.86217,0.09726
1761.89781,0.09964
1760.93344,0.10227
1759.96907,0.10445
1759.00471,0.10617
1758.04034,0.10796
1757.07597,0.11021
1756.11161,0.11260
1755.14724,0.11471
1754.18288,0.11634
1753.21851,0.11770
1752.25414,0.11937
1751.28978,0.12148
1750.32541,0.12358
1749.36104,0.12519
1748.39668,0.12670
1747.43231,0.12831
1746.46794,0.12974
1745.50358,0.13080
1744.53921,0.13174
1743.57484,0.13288
1742.61048,0.13387
1741.64611,0.13448
1740.68174,0.13504
1739.71738,0.13595
1738.75301,0.13683
1737.78864,0.13714
1736.82428,0.13685
1735.85991,0.13644
1734.89554,0.13657
1733.93118,0.13736
1732.96681,0.13774
1732.00244,0.13710
1731.03808,0.13602
1730.07371,0.13537
1729.10934,0.13493
1728.14498,0.13430
1727.18061,0.13347
1726.21624,0.13255
1725.25188,0.13157
1724.28751,0.13050
1723.32314,0.12944
1722.35878,0.12834
1721.39441,0.12705
1720.43004,0.12544
1719.46568,0.12377
1718.50131,0.12247
1717.53694,0.12150
1716.57258,0.12034
1715.60821,0.11883
1714.64384,0.11737
1713.67948,0.11604
1712.71511,0.11453
1711.75074,0.11281
1710.78638,0.11115
1709.82201,0.10967
1708.85764,0.10810
1707.89328,0.10632
1706.92891,0.10454
1705.96454,0.10302
1705.00018,0.10169
1704.03581,0.10029
1703.07144,0.09843
1702.10708,0.09622
1701.14271,0.09439
1700.17834,0.09345
1699.21398,0.09258
1698.24961,0.09084
1697.28524,0.08864
1696.32088,0.08702
1695.35651,0.08610
1694.39214,0.08505
1693.42778,0.08363
1692.46341,0.08218
1691.49905,0.08092
1690.53468,0.07969
1689.57031,0.07847
1688.60595,0.07734
1687.64158,0.07622
1686.67721,0.07481
1685.71285,0.07339
1684.74848,0.07256
1683.78411,0.07246
1682.81975,0.07217
1681.85538,0.07135
1680.89101,0.07041
1679.92665,0.06984
1678.96228,0.06946
1677.99791,0.06891
1677.03355,0.06827
1676.06918,0.06795
1675.10481,0.06811
1674.14045,0.06824
1673.17608,0.06806
1672.21171,0.06784
1671.24735,0.06780
1670.28298,0.06797
1669.31861,0.06840
1668.35425,0.06908
1667.38988,0.06964
1666.42551,0.07002
1665.46115,0.07038
1664.49678,0.07083
1663.53241,0.07151
1662.56805,0.07246
1661.60368,0.07353
1660.63931,0.07449
1659.67495,0.07542
1658.71058,0.07642
1657.74621,0.07746
1656.78185,0.07852
1655.81748,0.07927
1654.85311,0.07986
1653.88875,0.08090
1652.92438,0.08294
1651.96001,0.08522
1650.99565,0.08689
1650.03128,0.08815
1649.06691,0.08948
1648.10255,0.09108
1647.13818,0.09288
1646.17381,0.09496
1645.20945,0.09706
1644.24508,0.09896
1643.28071,0.10072
1642.31635,0.10253
1641.35198,0.10450
1640.38761,0.10650
1639.42325,0.10851
1638.45888,0.11044
1637.49451,0.11223
1636.53015,0.11411
1635.56578,0.11627
1634.60141,0.11862
1633.63705,0.12062
1632.67268,0.12235
1631.70831,0.12399
1630.74395,0.12564
1629.77958,0.12704
1628.81522,0.12827
1627.85085,0.12944
1626.88648,0.13046
1625.92212,0.13124
1624.95775,0.13165
1623.99338,0.13190
1623.02902,0.13192
1622.06465,0.13175
1621.10028,0.13125
1620.13592,0.13040
1619.17155,0.12938
1618.20718,0.12796
1617.24282,0.12606
1616.27845,0.12372
1615.31408,0.12160
1614.34972,0.11952
1613.38535,0.11716
1612.42098,0.11446
1611.45662,0.11164
1610.49225,0.10882
1609.52788,0.10584
1608.56352,0.10288
1607.59915,0.09989
1606.63478,0.09690
1605.67042,0.09389
1604.70605,0.09092
1603.74168,0.08809
1602.77732,0.08529
1601.81295,0.08262
1600.84858,0.07997
1599.88422,0.07741
1598.91985,0.07495
1597.95548,0.07261
1596.99112,0.07038
1596.02675,0.06817
1595.06238,0.06605
1594.09802,0.06396
1593.13365,0.06207
1592.16928,0.06029
1591.20492,0.05854
1590.24055,0.05681
1589.27618,0.05513
1588.31182,0.05362
1587.34745,0.05216
1586.38308,0.05074
1585.41872,0.04932
1584.45435,0.04793
1583.48998,0.04660
1582.52562,0.04530
1581.56125,0.04405
1580.59688,0.04280
1579.63252,0.04159
1578.66815,0.04043
1577.70378,0.03926
1576.73942,0.03811
1575.77505,0.03697
1574.81068,0.03600
1573.84632,0.03504
1572.88195,0.03406
1571.91758,0.03298
1570.95322,0.03186
1569.98885,0.03077
1569.02448,0.02980
1568.06012,0.02897
1567.09575,0.02807
1566.13139,0.02713
1565.16702,0.02618
1564.20265,0.02527
1563.23829,0.02433
1562.27392,0.02322
1561.30955,0.02197
1560.34519,0.02057
1559.38082,0.01943
1558.41645,0.01866
1557.45209,0.01825
1556.48772,0.01773
1555.52335,0.01697
1554.55899,0.01613
1553.59462,0.01536
1552.63025,0.01460
1551.66589,0.01377
1550.70152,0.01301
1549.73715,0.01238
1548.77279,0.01176
1547.80842,0.01100
1546.84405,0.01012
1545.87969,0.00931
1544.91532,0.00859
1543.95095,0.00792
1542.98659,0.00732
1542.02222,0.00671
1541.05785,0.00608
1540.09349,0.00544
1539.12912,0.00510
1538.16475,0.00486
1537.20039,0.00454
1536.23602,0.00402
1535.27165,0.00346
1534.30729,0.00299
1533.34292,0.00271
1532.37855,0.00256
1531.41419,0.00235
1530.44982,0.00204
1529.48545,0.00167
1528.52109,0.00132
1527.55672,0.00105
1526.59235,0.00085
1525.62799,0.00077
1524.66362,0.00065
1523.69925,0.00041
1522.73489,0.00018
1521.77052,0.00017
1520.80615,0.00040
1519.84179,0.00047
1518.87742,0.00033
1517.91305,0.00018
1516.94869,0.00028
1515.98432,0.00047
1515.01995,0.00055
1514.05559,0.00058
1513.09122,0.00065
1512.12685,0.00082
1511.16249,0.00094
1510.19812,0.00096
1509.23375,0.00082
1508.26939,0.00055
1507.30502,0.00053
1506.34065,0.00107
1505.37629,0.00200
1504.41192,0.00263
1503.44756,0.00295
1502.48319,0.00326
1501.51882,0.00364
1500.55446,0.00396
1499.59009,0.00428
1498.62572,0.00472
1497.66136,0.00519
1496.69699,0.00575
1495.73262,0.00646
1494.76826,0.00715
1493.80389,0.00771
1492.83952,0.00813
1491.87516,0.00857
1490.91079,0.00915
1489.94642,0.00996
1488.98206,0.01080
1488.01769,0.01160
1487.05332,0.01250
1486.08896,0.01345
1485.12459,0.01432
1484.16022,0.01510
1483.19586,0.01593
1482.23149,0.01686
1481.26712,0.01787
1480.30276,0.01892
1479.33839,0.01988
1478.37402,0.02079
1477.40966,0.02180
1476.44529,0.02300
1475.48092,0.02416
1474.51656,0.02508
1473.55219,0.02613
1472.58782,0.02761
1471.62346,0.02932
1470.65909,0.03075
1469.69472,0.03196
1468.73036,0.03320
1467.76599,0.03447
1466.80162,0.03566
1465.83726,0.03696
1464.87289,0.03859
1463.90852,0.04029
1462.94416,0.04177
1461.97979,0.04307
1461.01542,0.04435
1460.05106,0.04560
1459.08669,0.04673
1458.12232,0.04809
1457.15796,0.04989
1456.19359,0.05197
1455.22922,0.05374
1454.26486,0.05515
1453.30049,0.05650
1452.33612,0.05808
1451.37176,0.05972
1450.40739,0.06123
1449.44302,0.06268
1448.47866,0.06425
1447.51429,0.06598
1446.54992,0.06762
1445.58556,0.06909
1444.62119,0.07055
1443.65682,0.07210
1442.69246,0.07368
1441.72809,0.07518
1440.76373,0.07666
1439.79936,0.07805
1438.83499,0.07923
1437.87063,0.08043
1436.90626,0.08195
1435.94189,0.08369
1434.97753,0.08514
1434.01316,0.08636
1433.04879,0.08761
1432.08443,0.08889
1431.12006,0.09009
1430.15569,0.09130
1429.19133,0.09264
1428.22696,0.09393
1427.26259,0.09512
1426.29823,0.09619
1425.33386,0.09720
1424.36949,0.09824
1423.40513,0.09934
1422.44076,0.10036
1421.47639,0.10110
1420.51203,0.10184
1419.54766,0.10285
1418.58329,0.10401
1417.61893,0.10496
1416.65456,0.10572
1415.69019,0.10647
1414.72583,0.10720
1413.76146,0.10787
1412.79709,0.10854
1411.83273,0.10926
1410.86836,0.10998
1409.90399,0.11064
1408.93963,0.11126
1407.97526,0.11183
1407.01089,0.11239
1406.04653,0.11294
1405.08216,0.11358
1404.11779,0.11428
1403.15343,0.11493
1402.18906,0.11549
1401.22469,0.11597
1400.26033,0.11647
1399.29596,0.11705
1398.33159,0.11768
1397.36723,0.11821
1396.40286,0.11852
1395.43849,0.11873
1394.47413,0.11909
1393.50976,0.11973
1392.54539,0.12048
1391.58103,0.12117
1390.61666,0.12173
1389.65229,0.12215
1388.68793,0.12251
1387.72356,0.12291
1386.75919,0.12340
1385.79483,0.12384
1384.83046,0.12421
1383.86609,0.12456
1382.90173,0.12495
1381.93736,0.12536
1380.97299,0.12572
1380.00863,0.12607
1379.04426,0.12641
1378.07989,0.12678
1377.11553,0.12711
1376.15116,0.12735
1375.18680,0.12755
1374.22243,0.12779
1373.25806,0.12809
1372.29370,0.12835
1371.32933,0.12859
1370.36496,0.12881
1369.40060,0.12903
1368.43623,0.12920
1367.47186,0.12931
1366.50750,0.12940
1365.54313,0.12945
1364.57876,0.12947
1363.61440,0.12951
1362.65003,0.12958
1361.68566,0.12962
1360.72130,0.12959
1359.75693,0.12952
1358.79256,0.12938
1357.82820,0.12923
1356.86383,0.12909
1355.89946,0.12897
1354.93510,0.12879
1353.97073,0.12857
1353.00636,0.12833
1352.04200,0.12807
1351.07763,0.12779
1350.11326,0.12747
1349.14890,0.12715
1348.18453,0.12683
1347.22016,0.12649
1346.25580,0.12611
1345.29143,0.12570
1344.32706,0.12527
1343.36270,0.12481
1342.39833,0.12433
1341.43396,0.12385
1340.46960,0.12341
1339.50523,0.12298
1338.54086,0.12254
1337.57650,0.12210
1336.61213,0.12166
1335.64776,0.12122
1334.68340,0.12077
1333.71903,0.12028
1332.75466,0.11978
1331.79030,0.11929
1330.82593,0.11883
1329.86156,0.11836
1328.89720,0.11789
1327.93283,0.11746
1326.96846,0.11704
1326.00410,0.11661
1325.03973,0.11616
1324.07536,0.11574
1323.11100,0.11538
1322.14663,0.11502
1321.18226,0.11462
1320.21790,0.11426
1319.25353,0.11394
1318.28916,0.11362
1317.32480,0.11329
1316.36043,0.11298
1315.39606,0.11274
1314.43170,0.11256
1313.46733,0.11238
1312.50297,0.11222
1311.53860,0.11210
1310.57423,0.11197
1309.60987,0.11181
1308.64550,0.11165
1307.68113,0.11154
1306.71677,0.11148
1305.75240,0.11145
1304.78803,0.11147
1303.82367,0.11154
1302.85930,0.11163
1301.89493,0.11171
1300.93057,0.11177
1299.96620,0.11182
1299.00183,0.11187
1298.03747,0.11197
1297.07310,0.11210
1296.10873,0.11222
1295.14437,0.11236
1294.18000,0.11249
1293.21563,0.11264
1292.25127,0.11282
1291.28690,0.11304
1290.32253,0.11325
1289.35817,0.11340
1288.39380,0.11352
1287.42943,0.11365
1286.46507,0.11379
1285.50070,0.11391
1284.53633,0.11400
1283.57197,0.11407
1282.60760,0.11413
1281.64323,0.11420
1280.67887,0.11428
1279.71450,0.11433
1278.75013,0.11435
1277.78577,0.11439
1276.82140,0.11441
1275.85703,0.11437
1274.89267,0.11432
1273.92830,0.11430
1272.96393,0.11433
1271.99957,0.11436
1271.03520,0.11439
1270.07083,0.11442
1269.10647,0.11444
1268.14210,0.11447
1267.17773,0.11451
1266.21337,0.11457
1265.24900,0.11466
1264.28463,0.11479
1263.32027,0.11492
1262.35590,0.11504
1261.39153,0.11519
1260.42717,0.11542
1259.46280,0.11576
1258.49843,0.11613
1257.53407,0.11648
1256.56970,0.11684
1255.60533,0.11725
1254.64097,0.11774
1253.67660,0.11825
1252.71223,0.11874
1251.74787,0.11920
1250.78350,0.11965
1249.81914,0.12016
1248.85477,0.12075
1247.89040,0.12141
1246.92604,0.12210
1245.96167,0.12278
1244.99730,0.12344
1244.03294,0.12409
1243.06857,0.12470
1242.10420,0.12528
1241.13984,0.12593
1240.17547,0.12671
1239.21110,0.12754
1238.24674,0.12835
1237.28237,0.12911
1236.31800,0.12981
1235.35364,0.13044
1234.38927,0.13104
1233.42490,0.13170
1232.46054,0.13243
1231.49617,0.13316
1230.53180,0.13387
1229.56744,0.13455
1228.60307,0.13518
1227.63870,0.13571
1226.67434,0.13612
1225.70997,0.13639
1224.74560,0.13664
1223.78124,0.13696
1222.81687,0.13734
1221.85250,0.13763
1220.88814,0.13779
1219.92377,0.13791
1218.95940,0.13803
1217.99504,0.13811
1217.03067,0.13811
1216.06630,0.13802
1215.10194,0.13789
1214.13757,0.13781
1213.17320,0.13779
1212.20884,0.13779
1211.24447,0.13776
1210.28010,0.13776
1209.31574,0.13779
1208.35137,0.13780
1207.38700,0.13779
1206.42264,0.13777
1205.45827,0.13773
1204.49390,0.13771
1203.52954,0.13778
1202.56517,0.13794
1201.60080,0.13810
1200.63644,0.13823
1199.67207,0.13836
1198.70770,0.13852
1197.74334,0.13875
1196.77897,0.13902
1195.81460,0.13924
1194.85024,0.13943
1193.88587,0.13970
1192.92150,0.14008
1191.95714,0.14049
1190.99277,0.14086
1190.02840,0.14120
1189.06404,0.14151
1188.09967,0.14186
1187.13531,0.14229
1186.17094,0.14277
1185.20657,0.14320
1184.24221,0.14361
1183.27784,0.14403
1182.31347,0.14445
1181.34911,0.14486
1180.38474,0.14530
1179.42037,0.14576
1178.45601,0.14619
1177.49164,0.14664
1176.52727,0.14711
1175.56291,0.14751
1174.59854,0.14785
1173.63417,0.14821
1172.66981,0.14862
1171.70544,0.14902
1170.74107,0.14939
1169.77671,0.14976
1168.81234,0.15009
1167.84797,0.15040
1166.88361,0.15068
1165.91924,0.15097
1164.95487,0.15130
1163.99051,0.15170
1163.02614,0.15207
1162.06177,0.15232
1161.09741,0.15250
1160.13304,0.15271
1159.16867,0.15296
1158.20431,0.15317
1157.23994,0.15333
1156.27557,0.15351
1155.31121,0.15377
1154.34684,0.15408
1153.38247,0.15435
1152.41811,0.15456
1151.45374,0.15480
1150.48937,0.15517
1149.52501,0.15560
1148.56064,0.15597
1147.59627,0.15624
1146.63191,0.15649
1145.66754,0.15676
1144.70317,0.15706
1143.73881,0.15742
1142.77444,0.15785
1141.81007,0.15828
1140.84571,0.15864
1139.88134,0.15901
1138.91697,0.15946
1137.95261,0.15998
1136.98824,0.16056
1136.02387,0.16111
1135.05951,0.16162
1134.09514,0.16209
1133.13077,0.16260
1132.16641,0.16313
1131.20204,0.16366
1130.23767,0.16420
1129.27331,0.16480
1128.30894,0.16546
1127.34457,0.16610
1126.38021,0.16668
1125.41584,0.16724
1124.45148,0.16789
1123.48711,0.16860
1122.52274,0.16936
1121.55838,0.17011
1120.59401,0.17082
1119.62964,0.17149
1118.66528,0.17211
1117.70091,0.17271
1116.73654,0.17332
1115.77218,0.17394
1114.80781,0.17450
1113.84344,0.17505
1112.87908,0.17571
1111.91471,0.17654
1110.95034,0.17746
1109.98598,0.17831
1109.02161,0.17898
1108.05724,0.17952
1107.09288,0.18007
1106.12851,0.18070
1105.16414,0.18137
1104.19978,0.18209
1103.23541,0.18290
1102.27104,0.18374
1101.30668,0.18454
1100.34231,0.18534
1099.37794,0.18619
1098.41358,0.18698
1097.44921,0.18766
1096.48484,0.18835
1095.52048,0.18911
1094.55611,0.18984
1093.59174,0.19050
1092.62738,0.19117
1091.66301,0.19190
1090.69864,0.19266
1089.73428,0.19335
1088.76991,0.19389
1087.80554,0.19430
1086.84118,0.19474
1085.87681,0.19529
1084.91244,0.19583
1083.94808,0.19620
1082.98371,0.19645
1082.01934,0.19668
1081.05498,0.19696
1080.09061,0.19735
1079.12624,0.19780
1078.16188,0.19826
1077.19751,0.19869
1076.23314,0.19905
1075.26878,0.19925
1074.30441,0.19936
1073.34004,0.19962
1072.37568,0.20010
1071.41131,0.20059
1070.44694,0.20090
1069.48258,0.20109
1068.51821,0.20121
1067.55384,0.20128
1066.58948,0.20139
1065.62511,0.20167
1064.66074,0.20209
1063.69638,0.20258
1062.73201,0.20315
1061.76765,0.20369
1060.80328,0.20402
1059.83891,0.20412
1058.87455,0.20422
1057.91018,0.20448
1056.94581,0.20485
1055.98145,0.20519
1055.01708,0.20543
1054.05271,0.20549
1053.08835,0.20530
1052.12398,0.20481
1051.15961,0.20405
1050.19525,0.20311
1049.23088,0.20206
1048.26651,0.20092
1047.30215,0.19957
1046.33778,0.19790
1045.37341,0.19595
1044.40905,0.19388
1043.44468,0.19180
1042.48031,0.18971
1041.51595,0.18750
1040.55158,0.18516
1039.58721,0.18271
1038.62285,0.18026
1037.65848,0.17790
1036.69411,0.17563
1035.72975,0.17333
1034.76538,0.17101
1033.80101,0.16873
1032.83665,0.16644
1031.87228,0.16414
1030.90791,0.16183
1029.94355,0.15949
1028.97918,0.15708
1028.01481,0.15467
1027.05045,0.15245
1026.08608,0.15057
1025.12171,0.14896
1024.15735,0.14735
1023.19298,0.14550
1022.22861,0.14352
1021.26425,0.14170
1020.29988,0.14007
1019.33551,0.13845
1018.37115,0.13680
1017.40678,0.13531
1016.44241,0.13405
1015.47805,0.13287
1014.51368,0.13169
1013.54931,0.13069
1012.58495,0.12994
1011.62058,0.12926
1010.65621,0.12854
1009.69185,0.12786
1008.72748,0.12725
1007.76311,0.12666
1006.79875,0.12607
1005.83438,0.12555
1004.87001,0.12509
1003.90565,0.12466
1002.94128,0.12425
1001.97691,0.12385
1001.01255,0.12343
1000.04818,0.12301
999.08382,0.12252
998.11945,0.12196
997.15508,0.12136
996.19072,0.12081
995.22635,0.12037
994.26198,0.11998
993.29762,0.11954
992.33325,0.11896
991.36888,0.11831
990.40452,0.11764
989.44015,0.11692
988.47578,0.11609
987.51142,0.11518
986.54705,0.11433
985.58268,0.11355
984.61832,0.11274
983.65395,0.11179
982.68958,0.11074
981.72522,0.10964
980.76085,0.10852
979.79648,0.10738
978.83212,0.10623
977.86775,0.10506
976.90338,0.10384
975.93902,0.10252
974.97465,0.10113
974.01028,0.09968
973.04592,0.09824
972.08155,0.09680
971.11718,0.09536
970.15282,0.09384
969.18845,0.09225
968.22408,0.09068
967.25972,0.08915
966.29535,0.08758
965.33098,0.08592
964.36662,0.08423
963.40225,0.08261
962.43788,0.08103
961.47352,0.07942
960.50915,0.07772
959.54478,0.07595
958.58042,0.07419
957.61605,0.07252
956.65168,0.07096
955.68732,0.06945
954.72295,0.06795
953.75858,0.06637
952.79422,0.06468
951.82985,0.06295
950.86548,0.06130
949.90112,0.05975
948.93675,0.05823
947.97238,0.05669
947.00802,0.05513
946.04365,0.05353
945.07928,0.05190
944.11492,0.05034
943.15055,0.04884
942.18618,0.04733
941.22182,0.04581
940.25745,0.04434
939.29308,0.04291
938.32872,0.04150
937.36435,0.04005
936.39998,0.03860
935.43562,0.03723
934.47125,0.03596
933.50689,0.03476
932.54252,0.03356
931.57815,0.03235
930.61379,0.03115
929.64942,0.03000
928.68505,0.02889
927.72069,0.02782
926.75632,0.02678
925.79195,0.02576
924.82759,0.02476
923.86322,0.02378
922.89885,0.02287
921.93449,0.02201
920.97012,0.02118
920.00575,0.02039
919.04139,0.01968
918.07702,0.01901
917.11265,0.01836
916.14829,0.01773
915.18392,0.01716
914.21955,0.01662
913.25519,0.01610
912.29082,0.01567
911.32645,0.01528
910.36209,0.01487
909.39772,0.01447
908.43335,0.01420
907.46899,0.01404
906.50462,0.01393
905.54025,0.01379
904.57589,0.01361
903.61152,0.01342
902.64715,0.01331
901.68279,0.01332
900.71842,0.01338
899.75405,0.01341
898.78969,0.01339
897.82532,0.01338
896.86095,0.01339
895.89659,0.01347
894.93222,0.01368
893.96785,0.01398
893.00349,0.01428
892.03912,0.01451
891.07475,0.01472
890.11039,0.01491
889.14602,0.01508
888.18165,0.01526
887.21729,0.01550
886.25292,0.01576
885.28855,0.01596
884.32419,0.01613
883.35982,0.01635
882.39545,0.01661
881.43109,0.01688
880.46672,0.01713
879.50235,0.01737
878.53799,0.01763
877.57362,0.01794
876.60925,0.01822
875.64489,0.01841
874.68052,0.01854
873.71615,0.01866
872.75179,0.01877
871.78742,0.01886
870.82306,0.01892
869.85869,0.01898
868.89432,0.01904
867.92996,0.01909
866.96559,0.01922
866.00122,0.01943
865.03686,0.01958
864.07249,0.01954
863.10812,0.01936
862.14376,0.01927
861.17939,0.01936
860.21502,0.01955
859.25066,0.01964
858.28629,0.01950
857.32192,0.01920
856.35756,0.01893
855.39319,0.01880
854.42882,0.01873
853.46446,0.01856
852.50009,0.01831
851.53572,0.01810
850.57136,0.01792
849.60699,0.01765
848.64262,0.01727
847.67826,0.01694
846.71389,0.01675
845.74952,0.01660
844.78516,0.01636
843.82079,0.01600
842.85642,0.01561
841.89206,0.01520
840.92769,0.01473
839.96332,0.01421
838.99896,0.01372
838.03459,0.01336
837.07022,0.01309
836.10586,0.01278
835.14149,0.01237
834.17712,0.01194
833.21276,0.01154
832.24839,0.01118
831.28402,0.01079
830.31966,0.01034
829.35529,0.00990
828.39092,0.00955
827.42656,0.00927
826.46219,0.00893
825.49782,0.00847
824.53346,0.00795
823.56909,0.00747
822.60472,0.00708
821.64036,0.00672
820.67599,0.00636
819.71162,0.00601
818.74726,0.00575
817.78289,0.00558
816.81852,0.00537
815.85416,0.00504
814.88979,0.00467
813.92542,0.00441
812.96106,0.00426
811.99669,0.00413
811.03232,0.00394
810.06796,0.00371
809.10359,0.00349
808.13923,0.00327
807.17486,0.00303
806.21049,0.00279
805.24613,0.00259
804.28176,0.00243
803.31739,0.00234
802.35303,0.00230
801.38866,0.00220
800.42429,0.00200
799.45993,0.00180
798.49556,0.00179
797.53119,0.00194
796.56683,0.00207
795.60246,0.00206
794.63809,0.00199
793.67373,0.00191
792.70936,0.00185
791.74499,0.00184
790.78063,0.00187
789.81626,0.00190
788.85189,0.00195
787.88753,0.00199
786.92316,0.00199
785.95879,0.00200
784.99443,0.00212
784.03006,0.00233
783.06569,0.00254
782.10133,0.00272
781.13696,0.00279
780.17259,0.00275
779.20823,0.00272
778.24386,0.00278
777.27949,0.00287
776.31513,0.00294
775.35076,0.00308
774.38639,0.00329
773.42203,0.00343
772.45766,0.00346
771.49329,0.00352
770.52893,0.00369
769.56456,0.00386
768.60019,0.00395
767.63583,0.00407
766.67146,0.00429
765.70709,0.00452
764.74273,0.00470
763.77836,0.00490
762.81399,0.00518
761.84963,0.00542
760.88526,0.00558
759.92089,0.00580
758.95653,0.00611
757.99216,0.00634
757.02779,0.00646
756.06343,0.00655
755.09906,0.00666
754.13469,0.00676
753.17033,0.00693
752.20596,0.00725
751.24159,0.00766
750.27723,0.00803
749.31286,0.00828
748.34849,0.00845
747.38413,0.00864
746.41976,0.00892
745.45540,0.00926
744.49103,0.00957
743.52666,0.00985
742.56230,0.01010
741.59793,0.01035
740.63356,0.01059
739.66920,0.01088
738.70483,0.01123
737.74046,0.01153
736.77610,0.01169
735.81173,0.01184
734.84736,0.01215
733.88300,0.01256
732.91863,0.01286
731.95426,0.01304
730.98990,0.01328
730.02553,0.01366
729.06116,0.01409
728.09680,0.01441
727.13243,0.01460
726.16806,0.01481
725.20370,0.01515
724.23933,0.01556
723.27496,0.01595
722.31060,0.01628
721.34623,0.01660
720.38186,0.01693
719.41750,0.01719
718.45313,0.01737
717.48876,0.01755
716.52440,0.01785
715.56003,0.01820
714.59566,0.01852
713.63130,0.01879
712.66693,0.01909
711.70256,0.01939
710.73820,0.01965
709.77383,0.01989
708.80946,0.02016
707.84510,0.02047
706.88073,0.02081
705.91636,0.02118
704.95200,0.02152
703.98763,0.02183
703.02326,0.02216
702.05890,0.02247
701.09453,0.02266
700.13016,0.02281
699.16580,0.02306
698.20143,0.02335
697.23706,0.02358
696.27270,0.02381
695.30833,0.02419
694.34396,0.02464
693.37960,0.02490
692.41523,0.02498
691.45086,0.02511
690.48650,0.02544
689.52213,0.02586
688.55776,0.02622
687.59340,0.02645
686.62903,0.02657
685.66466,0.02667
684.70030,0.02683
683.73593,0.02709
682.77157,0.02739
681.80720,0.02756
680.84283,0.02765
679.87847,0.02784
678.91410,0.02817
677.94973,0.02852
676.98537,0.02876
676.02100,0.02890
675.05663,0.02906
674.09227,0.02937
673.12790,0.02968
672.16353,0.02984
671.19917,0.02984
670.23480,0.02988
669.27043,0.03030
668.30607,0.03106
667.34170,0.03168
666.37733,0.03177
665.41297,0.03170
664.44860,0.03176
663.48423,0.03191
662.51987,0.03203
661.55550,0.03221
660.59113,0.03253
659.62677,0.03295
658.66240,0.03331
657.69803,0.03353
656.73367,0.03371
655.76930,0.03403
654.80493,0.03449
653.84057,0.03501
652.87620,0.03553
651.91183,0.03598
650.94747,0.03635
649.98310,0.03667
649.01873,0.03701
648.05437,0.03732
647.09000,0.03758
646.12563,0.03789
645.16127,0.03832
644.19690,0.03879
643.23253,0.03921
642.26817,0.03955
641.30380,0.03987
640.33943,0.04024
639.37507,0.04069
638.41070,0.04115
637.44633,0.04157
636.48197,0.04197
635.51760,0.04237
634.55323,0.04279
633.58887,0.04327
632.62450,0.04385
631.66013,0.04445
630.69577,0.04492
629.73140,0.04531
628.76703,0.04575
627.80267,0.04625
626.83830,0.04674
625.87393,0.04727
624.90957,0.04789
623.94520,0.04852
622.98083,0.04906
622.01647,0.04949
621.05210,0.04994
620.08774,0.05051
619.12337,0.05107
618.15900,0.05166
617.19464,0.05242
616.23027,0.05330
615.26590,0.05401
614.30154,0.05444
613.33717,0.05479
612.37280,0.05524
611.40844,0.05586
610.44407,0.05650
609.47970,0.05697
608.51534,0.05734
607.55097,0.05785
606.58660,0.05844
605.62224,0.05885
604.65787,0.05916
603.69350,0.05963
602.72914,0.06021
601.76477,0.06065
600.80040,0.06096
599.83604,0.06128
598.87167,0.06159
597.90730,0.06187
596.94294,0.06212
595.97857,0.06250
595.01420,0.06306
594.04984,0.06369
593.08547,0.06426
592.12110,0.06477
591.15674,0.06527
590.19237,0.06571
589.22800,0.06605
588.26364,0.06618
587.29927,0.06616
586.33490,0.06631
585.37054,0.06679
584.40617,0.06731
583.44180,0.06749
582.47744,0.06735
581.51307,0.06717
580.54870,0.06700
579.58434,0.06673
578.61997,0.06631
577.65560,0.06585
576.69124,0.06542
575.72687,0.06495
574.76250,0.06429
573.79814,0.06339
572.83377,0.06243
571.86940,0.06147
570.90504,0.06054
569.94067,0.05972
568.97630,0.05900
568.01194,0.05814
567.04757,0.05710
566.08320,0.05614
565.11884,0.05524
564.15447,0.05427
563.19010,0.05343
562.22574,0.05288
561.26137,0.05238
560.29700,0.05168
559.33264,0.05093
558.36827,0.05041
557.40390,0.05003
556.43954,0.04952
555.47517,0.04886
554.51081,0.04818
553.54644,0.04743
552.58207,0.04673
551.61771,0.04640
550.65334,0.04641
549.68897,0.04644
548.72461,0.04631
547.76024,0.04595
546.79587,0.04540
545.83151,0.04497
544.86714,0.04480
543.90277,0.04464
542.93841,0.04428
541.97404,0.04385
541.00967,0.04358
540.04531,0.04366
539.08094,0.04396
538.11657,0.04399
537.15221,0.04352
536.18784,0.04291
535.22347,0.04249
534.25911,0.04217
533.29474,0.04180
532.33037,0.04158
531.36601,0.04172
530.40164,0.04198
529.43727,0.04195
528.47291,0.04161
527.50854,0.04121
526.54417,0.04087
525.57981,0.04044
524.61544,0.03992
523.65107,0.03965
522.68671,0.03986
521.72234,0.04017
520.75797,0.04016
519.79361,0.03992
518.82924,0.03963
517.86487,0.03923
516.90051,0.03875
515.93614,0.03847
514.97177,0.03857
514.00741,0.03888
513.04304,0.03912
512.07867,0.03923
511.11431,0.03924
510.14994,0.03893
509.18557,0.03819
508.22121,0.03739
507.25684,0.03699
506.29247,0.03703
505.32811,0.03721
504.36374,0.03720
503.39937,0.03695
502.43501,0.03680
501.47064,0.03698
500.50627,0.03721
499.54191,0.03736
498.57754,0.03755
497.61317,0.03763
496.64881,0.03719
495.68444,0.03647
494.72007,0.03623
493.75571,0.03648
492.79134,0.03656
491.82698,0.03621
490.86261,0.03577
489.89824,0.03540
488.93388,0.03517
487.96951,0.03525
487.00514,0.03554
486.04078,0.03558
485.07641,0.03532
484.11204,0.03529
483.14768,0.03572
482.18331,0.03612
481.21894,0.03584
480.25458,0.03495
479.29021,0.03416
478.32584,0.03390
477.36148,0.03384
476.39711,0.03349
475.43274,0.03298
474.46838,0.03272
473.50401,0.03254
472.53964,0.03195
471.57528,0.03118
470.61091,0.03101
469.64654,0.03169
468.68218,0.03247
467.71781,0.03256
466.75344,0.03214
465.78908,0.03209
464.82471,0.03262
463.86034,0.03288
462.89598,0.03211
461.93161,0.03054
460.96724,0.02904
460.00288,0.02850
459.03851,0.02886
458.07414,0.02923
457.10978,0.02917
456.14541,0.02946
455.18104,0.03061
454.21668,0.03152
453.25231,0.03086
452.28794,0.02893
451.32358,0.02730
450.35921,0.02709
449.39484,0.02805
448.43048,0.02875
447.46611,0.02840
446.50174,0.02794
445.53738,0.02828
444.57301,0.02839
443.60864,0.02726
442.64428,0.02594
441.67991,0.02590
440.71554,0.02690
439.75118,0.02775
438.78681,0.02780
437.82244,0.02696
436.85808,0.02561
435.89371,0.02444
434.92934,0.02385
433.96498,0.02347
433.00061,0.02267
432.03624,0.02145
431.07188,0.02045
430.10751,0.02014
429.14315,0.02031
428.17878,0.02031
427.21441,0.01991
426.25005,0.01935
425.28568,0.01884
424.32131,0.01859
423.35695,0.01879
422.39258,0.01924
421.42821,0.01845
420.46385,0.01618
419.49948,0.01451
418.53511,0.01500
417.57075,0.01552
416.60638,0.01429
415.64201,0.01288
414.67765,0.01281
413.71328,0.01297
412.74891,0.01249
411.78455,0.01211
410.82018,0.01210
409.85581,0.01198
408.89145,0.01188
407.92708,0.01188
406.96271,0.01172
405.99835,0.01141
405.03398,0.01091
404.06961,0.01002
403.10525,0.00872
402.14088,0.00688
401.17651,0.00541
400.21215,0.00541
399.24778,0.00541
