1900.76660,0.00309
1899.80223,0.00305
1898.83787,0.00301
1897.87350,0.00298
1896.90913,0.00294
1895.94477,0.00290
1894.98040,0.00286
1894.01603,0.00283
1893.05167,0.00279
1892.08730,0.00275
1891.12293,0.00271
1890.15857,0.00268
1889.19420,0.00264
1888.22983,0.00260
1887.26547,0.00256
1886.30110,0.00253
1885.33673,0.00249
1884.37237,0.00245
1883.40800,0.00241
1882.44364,0.00238
1881.47927,0.00234
1880.51490,0.00231
1879.55054,0.00228
1878.58617,0.00238
1877.62180,0.00252
1876.65744,0.00262
1875.69307,0.00254
1874.72870,0.00238
1873.76434,0.00243
1872.79997,0.00264
1871.83560,0.00262
1870.87124,0.00228
1869.90687,0.00200
1868.94250,0.00201
1867.97814,0.00216
1867.01377,0.00224
1866.04940,0.00229
1865.08504,0.00250
1864.12067,0.00276
1863.15630,0.00283
1862.19194,0.00270
1861.22757,0.00256
1860.26320,0.00244
1859.29884,0.00241
1858.33447,0.00256
1857.37010,0.00278
1856.40574,0.00298
1855.44137,0.00310
1854.47700,0.00313
1853.51264,0.00304
1852.54827,0.00315
1851.58390,0.00349
1850.61954,0.00374
1849.65517,0.00383
1848.69080,0.00378
1847.72644,0.00377
1846.76207,0.00387
1845.79770,0.00395
1844.83334,0.00390
1843.86897,0.00393
1842.90460,0.00426
1841.94024,0.00457
1840.97587,0.00479
1840.01150,0.00497
1839.04714,0.00508
1838.08277,0.00513
1837.11840,0.00528
1836.15404,0.00553
1835.18967,0.00565
1834.22530,0.00576
1833.26094,0.00602
1832.29657,0.00623
1831.33220,0.00615
1830.36784,0.00604
1829.40347,0.00627
1828.43910,0.00674
1827.47474,0.00709
1826.51037,0.00705
1825.54600,0.00707
1824.58164,0.00741
1823.61727,0.00791
1822.65290,0.00826
1821.68854,0.00850
1820.72417,0.00881
1819.75981,0.00906
1818.79544,0.00920
1817.83107,0.00925
1816.86671,0.00943
1815.90234,0.00979
1814.93797,0.01006
1813.97361,0.01020
1813.00924,0.01020
1812.04487,0.01023
1811.08051,0.01036
1810.11614,0.01062
1809.15177,0.01101
1808.18741,0.01136
1807.22304,0.01160
1806.25867,0.01171
1805.29431,0.01193
1804.32994,0.01214
1803.36557,0.01218
1802.40121,0.01227
1801.43684,0.01245
1800.47247,0.01269
1799.50811,0.01301
1798.54374,0.01346
1797.57937,0.01376
1796.61501,0.01406
1795.65064,0.01452
1794.68627,0.01480
1793.72191,0.01481
1792.75754,0.01500
1791.79317,0.01557
1790.82881,0.01620
1789.86444,0.01675
1788.90007,0.01727
1787.93571,0.01778
1786.97134,0.01828
1786.00697,0.01867
1785.04261,0.01916
1784.07824,0.01977
1783.11387,0.02036
1782.14951,0.02076
1781.18514,0.02122
1780.22077,0.02192
1779.25641,0.02260
1778.29204,0.02322
1777.32767,0.02374
1776.36331,0.02438
1775.39894,0.02512
1774.43457,0.02572
1773.47021,0.02622
1772.50584,0.02701
1771.54147,0.02832
1770.57711,0.02947
1769.61274,0.03015
1768.64837,0.03090
1767.68401,0.03202
1766.71964,0.03328
1765.75527,0.03432
1764.79091,0.03539
1763.82654,0.03631
1762.86217,0.03711
1761.89781,0.03814
1760.93344,0.03946
1759.96907,0.04074
1759.00471,0.04171
1758.04034,0.04261
1757.07597,0.04361
1756.11161,0.04485
1755.14724,0.04606
1754.18288,0.04711
1753.21851,0.04803
1752.25414,0.04877
1751.28978,0.04966
1750.32541,0.05053
1749.36104,0.05143
1748.39668,0.05233
1747.43231,0.05349
1746.46794,0.05465
1745.50358,0.05546
1744.53921,0.05602
1743.57484,0.05655
1742.61048,0.05737
1741.64611,0.05797
1740.68174,0.05825
1739.71738,0.05874
1738.75301,0.05945
1737.78864,0.06010
1736.82428,0.06030
1735.85991,0.06008
1734.89554,0.05989
1733.93118,0.06035
1732.96681,0.06120
1732.00244,0.06153
1731.03808,0.06145
1730.07371,0.06143
1729.10934,0.06173
1728.14498,0.06204
1727.18061,0.06209
1726.21624,0.06195
1725.25188,0.06164
1724.28751,0.06128
1723.32314,0.06097
1722.35878,0.06084
1721.39441,0.06062
1720.43004,0.06014
1719.46568,0.05922
1718.50131,0.05825
1717.53694,0.05782
1716.57258,0.05755
1715.60821,0.05697
1714.64384,0.05632
1713.67948,0.05608
1712.71511,0.05591
1711.75074,0.05540
1710.78638,0.05469
1709.82201,0.05401
1708.85764,0.05340
1707.89328,0.05252
1706.92891,0.05152
1705.96454,0.05070
1705.00018,0.05008
1704.03581,0.04951
1703.07144,0.04883
1702.10708,0.04779
1701.14271,0.04626
1700.17834,0.04538
1699.21398,0.04524
1698.24961,0.04507
1697.28524,0.04413
1696.32088,0.04328
1695.35651,0.04294
1694.39214,0.04283
1693.42778,0.04250
1692.46341,0.04195
1691.49905,0.04131
1690.53468,0.04063
1689.57031,0.04001
1688.60595,0.03957
1687.64158,0.03920
1686.67721,0.03866
1685.71285,0.03753
1684.74848,0.03636
1683.78411,0.03606
1682.81975,0.03649
1681.85538,0.03660
1680.89101,0.03620
1679.92665,0.03589
1678.96228,0.03574
1677.99791,0.03560
1677.03355,0.03525
1676.06918,0.03481
1675.10481,0.03466
1674.14045,0.03478
1673.17608,0.03475
1672.21171,0.03440
1671.24735,0.03414
1670.28298,0.03388
1669.31861,0.03381
1668.35425,0.03410
1667.38988,0.03461
1666.42551,0.03491
1665.46115,0.03501
1664.49678,0.03496
1663.53241,0.03482
1662.56805,0.03496
1661.60368,0.03542
1660.63931,0.03598
1659.67495,0.03636
1658.71058,0.03663
1657.74621,0.03693
1656.78185,0.03724
1655.81748,0.03737
1654.85311,0.03692
1653.88875,0.03635
1652.92438,0.03682
1651.96001,0.03814
1650.99565,0.03938
1650.03128,0.03981
1649.06691,0.03993
1648.10255,0.03995
1647.13818,0.04024
1646.17381,0.04097
1645.20945,0.04192
1644.24508,0.04281
1643.28071,0.04340
1642.31635,0.04392
1641.35198,0.04444
1640.38761,0.04501
1639.42325,0.04549
1638.45888,0.04586
1637.49451,0.04610
1636.53015,0.04602
1635.56578,0.04637
1634.60141,0.04729
1633.63705,0.04850
1632.67268,0.04926
1631.70831,0.04983
1630.74395,0.05030
1629.77958,0.05064
1628.81522,0.05078
1627.85085,0.05092
1626.88648,0.05129
1625.92212,0.05168
1624.95775,0.05167
1623.99338,0.05135
1623.02902,0.05130
1622.06465,0.05152
1621.10028,0.05169
1620.13592,0.05161
1619.17155,0.05137
1618.20718,0.05090
1617.24282,0.05004
1616.27845,0.04948
1615.31408,0.04936
1614.34972,0.04936
1613.38535,0.04898
1612.42098,0.04850
1611.45662,0.04806
1610.49225,0.04749
1609.52788,0.04694
1608.56352,0.04644
1607.59915,0.04601
1606.63478,0.04555
1605.67042,0.04518
1604.70605,0.04486
1603.74168,0.04444
1602.77732,0.04407
1601.81295,0.04376
1600.84858,0.04356
1599.88422,0.04334
1598.91985,0.04311
1597.95548,0.04284
1596.99112,0.04248
1596.02675,0.04215
1595.06238,0.04189
1594.09802,0.04176
1593.13365,0.04161
1592.16928,0.04143
1591.20492,0.04123
1590.24055,0.04099
1589.27618,0.04080
1588.31182,0.04057
1587.34745,0.04033
1586.38308,0.04004
1585.41872,0.03979
1584.45435,0.03952
1583.48998,0.03916
1582.52562,0.03881
1581.56125,0.03845
1580.59688,0.03813
1579.63252,0.03775
1578.66815,0.03730
1577.70378,0.03659
1576.73942,0.03571
1575.77505,0.03522
1574.81068,0.03511
1573.84632,0.03504
1572.88195,0.03466
1571.91758,0.03416
1570.95322,0.03331
1569.98885,0.03235
1569.02448,0.03190
1568.06012,0.03186
1567.09575,0.03164
1566.13139,0.03090
1565.16702,0.03021
1564.20265,0.02976
1563.23829,0.02937
1562.27392,0.02884
1561.30955,0.02780
1560.34519,0.02631
1559.38082,0.02488
1558.41645,0.02450
1557.45209,0.02496
1556.48772,0.02527
1555.52335,0.02481
1554.55899,0.02410
1553.59462,0.02379
1552.63025,0.02364
1551.66589,0.02314
1550.70152,0.02235
1549.73715,0.02182
1548.77279,0.02169
1547.80842,0.02149
1546.84405,0.02091
1545.87969,0.02004
1544.91532,0.01933
1543.95095,0.01872
1542.98659,0.01810
1542.02222,0.01756
1541.05785,0.01677
1540.09349,0.01593
1539.12912,0.01567
1538.16475,0.01624
1537.20039,0.01662
1536.23602,0.01641
1535.27165,0.01587
1534.30729,0.01515
1533.34292,0.01480
1532.37855,0.01477
1531.41419,0.01485
1530.44982,0.01465
1529.48545,0.01428
1528.52109,0.01390
1527.55672,0.01356
1526.59235,0.01333
1525.62799,0.01312
1524.66362,0.01306
1523.69925,0.01284
1522.73489,0.01220
1521.77052,0.01172
1520.80615,0.01185
1519.84179,0.01246
1518.87742,0.01259
1517.91305,0.01227
1516.94869,0.01212
1515.98432,0.01238
1515.01995,0.01281
1514.05559,0.01297
1513.09122,0.01302
1512.12685,0.01300
1511.16249,0.01306
1510.19812,0.01303
1509.23375,0.01277
1508.26939,0.01233
1507.30502,0.01184
1506.34065,0.01233
1505.37629,0.01359
1504.41192,0.01480
1503.44756,0.01524
1502.48319,0.01547
1501.51882,0.01578
1500.55446,0.01604
1499.59009,0.01627
1498.62572,0.01647
1497.66136,0.01664
1496.69699,0.01700
1495.73262,0.01770
1494.76826,0.01850
1493.80389,0.01894
1492.83952,0.01919
1491.87516,0.01916
1490.91079,0.01906
1489.94642,0.01938
1488.98206,0.02005
1488.01769,0.02068
1487.05332,0.02118
1486.08896,0.02177
1485.12459,0.02224
1484.16022,0.02259
1483.19586,0.02290
1482.23149,0.02319
1481.26712,0.02353
1480.30276,0.02394
1479.33839,0.02437
1478.37402,0.02457
1477.40966,0.02456
1476.44529,0.02474
1475.48092,0.02516
1474.51656,0.02537
1473.55219,0.02528
1472.58782,0.02562
1471.62346,0.02656
1470.65909,0.02755
1469.69472,0.02821
1468.73036,0.02873
1467.76599,0.02920
1466.80162,0.02947
1465.83726,0.02965
1464.87289,0.03017
1463.90852,0.03099
1462.94416,0.03171
1461.97979,0.03224
1461.01542,0.03267
1460.05106,0.03292
1459.08669,0.03297
1458.12232,0.03313
1457.15796,0.03397
1456.19359,0.03520
1455.22922,0.03642
1454.26486,0.03725
1453.30049,0.03796
1452.33612,0.03861
1451.37176,0.03939
1450.40739,0.04020
1449.44302,0.04076
1448.47866,0.04138
1447.51429,0.04227
1446.54992,0.04325
1445.58556,0.04409
1444.62119,0.04486
1443.65682,0.04565
1442.69246,0.04637
1441.72809,0.04704
1440.76373,0.04771
1439.79936,0.04841
1438.83499,0.04888
1437.87063,0.04897
1436.90626,0.04958
1435.94189,0.05069
1434.97753,0.05170
1434.01316,0.05211
1433.04879,0.05254
1432.08443,0.05305
1431.12006,0.05340
1430.15569,0.05381
1429.19133,0.05435
1428.22696,0.05493
1427.26259,0.05536
1426.29823,0.05565
1425.33386,0.05578
1424.36949,0.05589
1423.40513,0.05626
1422.44076,0.05670
1421.47639,0.05685
1420.51203,0.05653
1419.54766,0.05638
1418.58329,0.05668
1417.61893,0.05717
1416.65456,0.05749
1415.69019,0.05769
1414.72583,0.05786
1413.76146,0.05790
1412.79709,0.05790
1411.83273,0.05794
1410.86836,0.05801
1409.90399,0.05810
1408.93963,0.05814
1407.97526,0.05818
1407.01089,0.05811
1406.04653,0.05803
1405.08216,0.05815
1404.11779,0.05838
1403.15343,0.05855
1402.18906,0.05861
1401.22469,0.05867
1400.26033,0.05861
1399.29596,0.05857
1398.33159,0.05871
1397.36723,0.05889
1396.40286,0.05879
1395.43849,0.05844
1394.47413,0.05836
1393.50976,0.05874
1392.54539,0.05930
1391.58103,0.05965
1390.61666,0.05983
1389.65229,0.05988
1388.68793,0.05976
1387.72356,0.05975
1386.75919,0.05998
1385.79483,0.06029
1384.83046,0.06044
1383.86609,0.06054
1382.90173,0.06068
1381.93736,0.06078
1380.97299,0.06086
1380.00863,0.06092
1379.04426,0.06103
1378.07989,0.06121
1377.11553,0.06141
1376.15116,0.06145
1375.18680,0.06133
1374.22243,0.06135
1373.25806,0.06161
1372.29370,0.06189
1371.32933,0.06201
1370.36496,0.06202
1369.40060,0.06199
1368.43623,0.06201
1367.47186,0.06211
1366.50750,0.06224
1365.54313,0.06231
1364.57876,0.06216
1363.61440,0.06196
1362.65003,0.06192
1361.68566,0.06210
1360.72130,0.06230
1359.75693,0.06244
1358.79256,0.06255
1357.82820,0.06257
1356.86383,0.06257
1355.89946,0.06256
1354.93510,0.06262
1353.97073,0.06270
1353.00636,0.06273
1352.04200,0.06270
1351.07763,0.06265
1350.11326,0.06263
1349.14890,0.06262
1348.18453,0.06260
1347.22016,0.06254
1346.25580,0.06247
1345.29143,0.06243
1344.32706,0.06237
1343.36270,0.06229
1342.39833,0.06219
1341.43396,0.06201
1340.46960,0.06172
1339.50523,0.06155
1338.54086,0.06157
1337.57650,0.06157
1336.61213,0.06152
1335.64776,0.06148
1334.68340,0.06143
1333.71903,0.06128
1332.75466,0.06113
1331.79030,0.06104
1330.82593,0.06091
1329.86156,0.06074
1328.89720,0.06061
1327.93283,0.06052
1326.96846,0.06044
1326.00410,0.06033
1325.03973,0.06021
1324.07536,0.06006
1323.11100,0.05995
1322.14663,0.05989
1321.18226,0.05979
1320.21790,0.05960
1319.25353,0.05942
1318.28916,0.05937
1317.32480,0.05938
1316.36043,0.05936
1315.39606,0.05928
1314.43170,0.05925
1313.46733,0.05924
1312.50297,0.05921
1311.53860,0.05915
1310.57423,0.05913
1309.60987,0.05915
1308.64550,0.05917
1307.68113,0.05917
1306.71677,0.05917
1305.75240,0.05921
1304.78803,0.05928
1303.82367,0.05933
1302.85930,0.05939
1301.89493,0.05950
1300.93057,0.05965
1299.96620,0.05978
1299.00183,0.05987
1298.03747,0.05998
1297.07310,0.06011
1296.10873,0.06024
1295.14437,0.06039
1294.18000,0.06056
1293.21563,0.06072
1292.25127,0.06089
1291.28690,0.06107
1290.32253,0.06121
1289.35817,0.06132
1288.39380,0.06145
1287.42943,0.06164
1286.46507,0.06181
1285.50070,0.06194
1284.53633,0.06207
1283.57197,0.06222
1282.60760,0.06237
1281.64323,0.06249
1280.67887,0.06260
1279.71450,0.06274
1278.75013,0.06289
1277.78577,0.06304
1276.82140,0.06319
1275.85703,0.06331
1274.89267,0.06337
1273.92830,0.06346
1272.96393,0.06359
1271.99957,0.06372
1271.03520,0.06387
1270.07083,0.06408
1269.10647,0.06429
1268.14210,0.06449
1267.17773,0.06468
1266.21337,0.06482
1265.24900,0.06495
1264.28463,0.06509
1263.32027,0.06528
1262.35590,0.06553
1261.39153,0.06578
1260.42717,0.06598
1259.46280,0.06617
1258.49843,0.06643
1257.53407,0.06671
1256.56970,0.06700
1255.60533,0.06728
1254.64097,0.06761
1253.67660,0.06794
1252.71223,0.06824
1251.74787,0.06853
1250.78350,0.06887
1249.81914,0.06927
1248.85477,0.06972
1247.89040,0.07015
1246.92604,0.07045
1245.96167,0.07071
1244.99730,0.07107
1244.03294,0.07153
1243.06857,0.07187
1242.10420,0.07205
1241.13984,0.07232
1240.17547,0.07278
1239.21110,0.07326
1238.24674,0.07365
1237.28237,0.07398
1236.31800,0.07430
1235.35364,0.07460
1234.38927,0.07488
1233.42490,0.07507
1232.46054,0.07527
1231.49617,0.07554
1230.53180,0.07585
1229.56744,0.07613
1228.60307,0.07634
1227.63870,0.07652
1226.67434,0.07669
1225.70997,0.07689
1224.74560,0.07711
1223.78124,0.07728
1222.81687,0.07743
1221.85250,0.07759
1220.88814,0.07776
1219.92377,0.07788
1218.95940,0.07801
1217.99504,0.07814
1217.03067,0.07823
1216.06630,0.07829
1215.10194,0.07834
1214.13757,0.07839
1213.17320,0.07847
1212.20884,0.07859
1211.24447,0.07865
1210.28010,0.07870
1209.31574,0.07881
1208.35137,0.07898
1207.38700,0.07910
1206.42264,0.07919
1205.45827,0.07931
1204.49390,0.07942
1203.52954,0.07948
1202.56517,0.07952
1201.60080,0.07958
1200.63644,0.07973
1199.67207,0.08000
1198.70770,0.08029
1197.74334,0.08046
1196.77897,0.08053
1195.81460,0.08064
1194.85024,0.08081
1193.88587,0.08103
1192.92150,0.08126
1191.95714,0.08146
1190.99277,0.08157
1190.02840,0.08166
1189.06404,0.08181
1188.09967,0.08207
1187.13531,0.08232
1186.17094,0.08247
1185.20657,0.08260
1184.24221,0.08282
1183.27784,0.08305
1182.31347,0.08319
1181.34911,0.08329
1180.38474,0.08346
1179.42037,0.08371
1178.45601,0.08396
1177.49164,0.08416
1176.52727,0.08429
1175.56291,0.08431
1174.59854,0.08427
1173.63417,0.08436
1172.66981,0.08461
1171.70544,0.08483
1170.74107,0.08494
1169.77671,0.08503
1168.81234,0.08520
1167.84797,0.08538
1166.88361,0.08550
1165.91924,0.08561
1164.95487,0.08571
1163.99051,0.08578
1163.02614,0.08582
1162.06177,0.08587
1161.09741,0.08592
1160.13304,0.08596
1159.16867,0.08605
1158.20431,0.08615
1157.23994,0.08623
1156.27557,0.08634
1155.31121,0.08651
1154.34684,0.08667
1153.38247,0.08673
1152.41811,0.08677
1151.45374,0.08679
1150.48937,0.08681
1149.52501,0.08686
1148.56064,0.08699
1147.59627,0.08717
1146.63191,0.08728
1145.66754,0.08738
1144.70317,0.08751
1143.73881,0.08764
1142.77444,0.08776
1141.81007,0.08789
1140.84571,0.08803
1139.88134,0.08817
1138.91697,0.08839
1137.95261,0.08862
1136.98824,0.08883
1136.02387,0.08909
1135.05951,0.08938
1134.09514,0.08956
1133.13077,0.08967
1132.16641,0.08990
1131.20204,0.09028
1130.23767,0.09067
1129.27331,0.09098
1128.30894,0.09128
1127.34457,0.09163
1126.38021,0.09194
1125.41584,0.09223
1124.45148,0.09257
1123.48711,0.09292
1122.52274,0.09315
1121.55838,0.09339
1120.59401,0.09376
1119.62964,0.09413
1118.66528,0.09441
1117.70091,0.09467
1116.73654,0.09505
1115.77218,0.09546
1114.80781,0.09576
1113.84344,0.09589
1112.87908,0.09601
1111.91471,0.09629
1110.95034,0.09662
1109.98598,0.09684
1109.02161,0.09696
1108.05724,0.09716
1107.09288,0.09751
1106.12851,0.09782
1105.16414,0.09802
1104.19978,0.09817
1103.23541,0.09841
1102.27104,0.09876
1101.30668,0.09912
1100.34231,0.09943
1099.37794,0.09971
1098.41358,0.10006
1097.44921,0.10051
1096.48484,0.10094
1095.52048,0.10118
1094.55611,0.10123
1093.59174,0.10128
1092.62738,0.10140
1091.66301,0.10149
1090.69864,0.10161
1089.73428,0.10183
1088.76991,0.10203
1087.80554,0.10209
1086.84118,0.10210
1085.87681,0.10217
1084.91244,0.10223
1083.94808,0.10218
1082.98371,0.10209
1082.01934,0.10209
1081.05498,0.10208
1080.09061,0.10200
1079.12624,0.10194
1078.16188,0.10193
1077.19751,0.10193
1076.23314,0.10189
1075.26878,0.10191
1074.30441,0.10199
1073.34004,0.10205
1072.37568,0.10212
1071.41131,0.10220
1070.44694,0.10231
1069.48258,0.10230
1068.51821,0.10207
1067.55384,0.10175
1066.58948,0.10158
1065.62511,0.10173
1064.66074,0.10205
1063.69638,0.10235
1062.73201,0.10250
1061.76765,0.10253
1060.80328,0.10254
1059.83891,0.10245
1058.87455,0.10220
1057.91018,0.10189
1056.94581,0.10165
1055.98145,0.10146
1055.01708,0.10124
1054.05271,0.10095
1053.08835,0.10061
1052.12398,0.10018
1051.15961,0.09965
1050.19525,0.09912
1049.23088,0.09864
1048.26651,0.09808
1047.30215,0.09738
1046.33778,0.09675
1045.37341,0.09623
1044.40905,0.09556
1043.44468,0.09470
1042.48031,0.09374
1041.51595,0.09273
1040.55158,0.09180
1039.58721,0.09104
1038.62285,0.09026
1037.65848,0.08932
1036.69411,0.08842
1035.72975,0.08769
1034.76538,0.08701
1033.80101,0.08621
1032.83665,0.08527
1031.87228,0.08422
1030.90791,0.08321
1029.94355,0.08213
1028.97918,0.08079
1028.01481,0.07937
1027.05045,0.07827
1026.08608,0.07748
1025.12171,0.07671
1024.15735,0.07576
1023.19298,0.07474
1022.22861,0.07374
1021.26425,0.07282
1020.29988,0.07194
1019.33551,0.07104
1018.37115,0.07012
1017.40678,0.06924
1016.44241,0.06848
1015.47805,0.06782
1014.51368,0.06715
1013.54931,0.06645
1012.58495,0.06571
1011.62058,0.06507
1010.65621,0.06461
1009.69185,0.06419
1008.72748,0.06364
1007.76311,0.06302
1006.79875,0.06250
1005.83438,0.06200
1004.87001,0.06145
1003.90565,0.06096
1002.94128,0.06056
1001.97691,0.06013
1001.01255,0.05964
1000.04818,0.05914
999.08382,0.05869
998.11945,0.05830
997.15508,0.05795
996.19072,0.05750
995.22635,0.05703
994.26198,0.05664
993.29762,0.05635
992.33325,0.05611
991.36888,0.05585
990.40452,0.05549
989.44015,0.05498
988.47578,0.05453
987.51142,0.05424
986.54705,0.05403
985.58268,0.05381
984.61832,0.05353
983.65395,0.05323
982.68958,0.05291
981.72522,0.05261
980.76085,0.05235
979.79648,0.05203
978.83212,0.05165
977.86775,0.05127
976.90338,0.05089
975.93902,0.05051
974.97465,0.05016
974.01028,0.04990
973.04592,0.04965
972.08155,0.04930
971.11718,0.04882
970.15282,0.04842
969.18845,0.04813
968.22408,0.04776
967.25972,0.04731
966.29535,0.04693
965.33098,0.04656
964.36662,0.04613
963.40225,0.04579
962.43788,0.04553
961.47352,0.04513
960.50915,0.04454
959.54478,0.04402
958.58042,0.04374
957.61605,0.04352
956.65168,0.04318
955.68732,0.04274
954.72295,0.04228
953.75858,0.04183
952.79422,0.04143
951.82985,0.04108
950.86548,0.04077
949.90112,0.04052
948.93675,0.04032
947.97238,0.04004
947.00802,0.03965
946.04365,0.03925
945.07928,0.03891
944.11492,0.03859
943.15055,0.03821
942.18618,0.03781
941.22182,0.03746
940.25745,0.03712
939.29308,0.03675
938.32872,0.03644
937.36435,0.03621
936.39998,0.03595
935.43562,0.03559
934.47125,0.03519
933.50689,0.03476
932.54252,0.03440
931.57815,0.03416
930.61379,0.03393
929.64942,0.03361
928.68505,0.03326
927.72069,0.03292
926.75632,0.03258
925.79195,0.03224
924.82759,0.03193
923.86322,0.03170
922.89885,0.03146
921.93449,0.03120
920.97012,0.03103
920.00575,0.03092
919.04139,0.03072
918.07702,0.03042
917.11265,0.03016
916.14829,0.03000
915.18392,0.02981
914.21955,0.02952
913.25519,0.02919
912.29082,0.02892
911.32645,0.02868
910.36209,0.02839
909.39772,0.02810
908.43335,0.02783
907.46899,0.02755
906.50462,0.02722
905.54025,0.02690
904.57589,0.02661
903.61152,0.02632
902.64715,0.02605
901.68279,0.02583
900.71842,0.02566
899.75405,0.02547
898.78969,0.02524
897.82532,0.02502
896.86095,0.02479
895.89659,0.02457
894.93222,0.02449
893.96785,0.02450
893.00349,0.02436
892.03912,0.02405
891.07475,0.02389
890.11039,0.02393
889.14602,0.02394
888.18165,0.02390
887.21729,0.02389
886.25292,0.02379
885.28855,0.02356
884.32419,0.02341
883.35982,0.02334
882.39545,0.02329
881.43109,0.02324
880.46672,0.02315
879.50235,0.02305
878.53799,0.02308
877.57362,0.02324
876.60925,0.02339
875.64489,0.02341
874.68052,0.02323
873.71615,0.02294
872.75179,0.02279
871.78742,0.02280
870.82306,0.02275
869.85869,0.02260
868.89432,0.02251
867.92996,0.02244
866.96559,0.02229
866.00122,0.02213
865.03686,0.02204
864.07249,0.02191
863.10812,0.02169
862.14376,0.02154
861.17939,0.02158
860.21502,0.02171
859.25066,0.02164
858.28629,0.02134
857.32192,0.02105
856.35756,0.02085
855.39319,0.02072
854.42882,0.02069
853.46446,0.02064
852.50009,0.02043
851.53572,0.02019
850.57136,0.02010
849.60699,0.02010
848.64262,0.02009
847.67826,0.02003
846.71389,0.01987
845.74952,0.01970
844.78516,0.01962
843.82079,0.01954
842.85642,0.01937
841.89206,0.01923
840.92769,0.01915
839.96332,0.01903
838.99896,0.01895
838.03459,0.01898
837.07022,0.01899
836.10586,0.01891
835.14149,0.01882
834.17712,0.01867
833.21276,0.01839
832.24839,0.01822
831.28402,0.01828
830.31966,0.01841
829.35529,0.01840
828.39092,0.01825
827.42656,0.01809
826.46219,0.01799
825.49782,0.01797
824.53346,0.01794
823.56909,0.01788
822.60472,0.01779
821.64036,0.01768
820.67599,0.01759
819.71162,0.01757
818.74726,0.01758
817.78289,0.01752
816.81852,0.01734
815.85416,0.01716
814.88979,0.01710
813.92542,0.01706
812.96106,0.01698
811.99669,0.01689
811.03232,0.01675
810.06796,0.01654
809.10359,0.01639
808.13923,0.01640
807.17486,0.01648
806.21049,0.01647
805.24613,0.01635
804.28176,0.01622
803.31739,0.01616
802.35303,0.01612
801.38866,0.01601
800.42429,0.01593
799.45993,0.01597
798.49556,0.01603
797.53119,0.01597
796.56683,0.01583
795.60246,0.01573
794.63809,0.01568
793.67373,0.01554
792.70936,0.01534
791.74499,0.01520
790.78063,0.01510
789.81626,0.01499
788.85189,0.01493
787.88753,0.01486
786.92316,0.01467
785.95879,0.01452
784.99443,0.01454
784.03006,0.01457
783.06569,0.01450
782.10133,0.01447
781.13696,0.01454
780.17259,0.01452
779.20823,0.01430
778.24386,0.01411
777.27949,0.01407
776.31513,0.01405
775.35076,0.01393
774.38639,0.01382
773.42203,0.01376
772.45766,0.01364
771.49329,0.01341
770.52893,0.01321
769.56456,0.01317
768.60019,0.01322
767.63583,0.01325
766.67146,0.01332
765.70709,0.01333
764.74273,0.01317
763.77836,0.01302
762.81399,0.01305
761.84963,0.01312
760.88526,0.01310
759.92089,0.01308
758.95653,0.01309
757.99216,0.01308
757.02779,0.01310
756.06343,0.01305
755.09906,0.01287
754.13469,0.01273
753.17033,0.01278
752.20596,0.01292
751.24159,0.01300
750.27723,0.01298
749.31286,0.01289
748.34849,0.01286
747.38413,0.01299
746.41976,0.01316
745.45540,0.01322
744.49103,0.01314
743.52666,0.01303
742.56230,0.01304
741.59793,0.01318
740.63356,0.01323
739.66920,0.01320
738.70483,0.01326
737.74046,0.01330
736.77610,0.01323
735.81173,0.01317
734.84736,0.01324
733.88300,0.01332
732.91863,0.01335
731.95426,0.01335
730.98990,0.01328
730.02553,0.01320
729.06116,0.01333
728.09680,0.01362
727.13243,0.01384
726.16806,0.01388
725.20370,0.01382
724.23933,0.01378
723.27496,0.01389
722.31060,0.01394
721.34623,0.01370
720.38186,0.01351
719.41750,0.01371
718.45313,0.01406
717.48876,0.01422
716.52440,0.01423
715.56003,0.01418
714.59566,0.01411
713.63130,0.01415
712.66693,0.01429
711.70256,0.01444
710.73820,0.01451
709.77383,0.01449
708.80946,0.01442
707.84510,0.01444
706.88073,0.01458
705.91636,0.01469
704.95200,0.01469
703.98763,0.01468
703.02326,0.01477
702.05890,0.01493
701.09453,0.01507
700.13016,0.01509
699.16580,0.01501
698.20143,0.01500
697.23706,0.01511
696.27270,0.01521
695.30833,0.01515
694.34396,0.01502
693.37960,0.01497
692.41523,0.01498
691.45086,0.01509
690.48650,0.01523
689.52213,0.01523
688.55776,0.01505
687.59340,0.01495
686.62903,0.01507
685.66466,0.01519
684.70030,0.01522
683.73593,0.01520
682.77157,0.01522
681.80720,0.01534
680.84283,0.01545
679.87847,0.01544
678.91410,0.01538
677.94973,0.01546
676.98537,0.01560
676.02100,0.01574
675.05663,0.01598
674.09227,0.01628
673.12790,0.01641
672.16353,0.01636
671.19917,0.01630
670.23480,0.01579
669.27043,0.01391
668.30607,0.01348
667.34170,0.01498
666.37733,0.01701
665.41297,0.01735
664.44860,0.01744
663.48423,0.01731
662.51987,0.01704
661.55550,0.01698
660.59113,0.01703
659.62677,0.01697
658.66240,0.01691
657.69803,0.01699
656.73367,0.01705
655.76930,0.01712
654.80493,0.01730
653.84057,0.01746
652.87620,0.01751
651.91183,0.01749
650.94747,0.01753
649.98310,0.01758
649.01873,0.01775
648.05437,0.01806
647.09000,0.01821
646.12563,0.01812
645.16127,0.01796
644.19690,0.01799
643.23253,0.01819
642.26817,0.01834
641.30380,0.01842
640.33943,0.01849
639.37507,0.01853
638.41070,0.01855
637.44633,0.01869
636.48197,0.01884
635.51760,0.01883
634.55323,0.01889
633.58887,0.01913
632.62450,0.01933
631.66013,0.01932
630.69577,0.01931
629.73140,0.01942
628.76703,0.01958
627.80267,0.01976
626.83830,0.01987
625.87393,0.01999
624.90957,0.02024
623.94520,0.02052
622.98083,0.02061
622.01647,0.02063
621.05210,0.02083
620.08774,0.02105
619.12337,0.02107
618.15900,0.02089
617.19464,0.02082
616.23027,0.02111
615.26590,0.02164
614.30154,0.02206
613.33717,0.02218
612.37280,0.02218
611.40844,0.02233
610.44407,0.02257
609.47970,0.02266
608.51534,0.02261
607.55097,0.02262
606.58660,0.02276
605.62224,0.02293
604.65787,0.02305
603.69350,0.02316
602.72914,0.02321
601.76477,0.02308
600.80040,0.02293
599.83604,0.02308
598.87167,0.02340
597.90730,0.02348
596.94294,0.02328
595.97857,0.02326
595.01420,0.02350
594.04984,0.02345
593.08547,0.02298
592.12110,0.02267
591.15674,0.02278
590.19237,0.02309
589.22800,0.02326
588.26364,0.02320
587.29927,0.02300
586.33490,0.02282
585.37054,0.02281
584.40617,0.02279
583.44180,0.02257
582.47744,0.02221
581.51307,0.02209
580.54870,0.02229
579.58434,0.02237
578.61997,0.02213
577.65560,0.02159
576.69124,0.02093
575.72687,0.02044
574.76250,0.02019
573.79814,0.02003
572.83377,0.01972
571.86940,0.01946
570.90504,0.01935
569.94067,0.01915
568.97630,0.01874
568.01194,0.01825
567.04757,0.01787
566.08320,0.01753
565.11884,0.01728
564.15447,0.01731
563.19010,0.01740
562.22574,0.01716
561.26137,0.01663
560.29700,0.01639
559.33264,0.01650
558.36827,0.01653
557.40390,0.01635
556.43954,0.01608
555.47517,0.01579
554.51081,0.01551
553.54644,0.01552
552.58207,0.01582
551.61771,0.01602
550.65334,0.01591
549.68897,0.01553
548.72461,0.01528
547.76024,0.01537
546.79587,0.01570
545.83151,0.01576
544.86714,0.01545
543.90277,0.01528
542.93841,0.01537
541.97404,0.01558
541.00967,0.01572
540.04531,0.01569
539.08094,0.01554
538.11657,0.01558
537.15221,0.01596
536.18784,0.01608
535.22347,0.01591
534.25911,0.01599
533.29474,0.01611
532.33037,0.01586
531.36601,0.01538
530.40164,0.01504
529.43727,0.01471
528.47291,0.01449
527.50854,0.01470
526.54417,0.01505
525.57981,0.01523
524.61544,0.01528
523.65107,0.01536
522.68671,0.01539
521.72234,0.01526
520.75797,0.01513
519.79361,0.01507
518.82924,0.01496
517.86487,0.01470
516.90051,0.01455
515.93614,0.01462
514.97177,0.01462
514.00741,0.01448
513.04304,0.01456
512.07867,0.01498
511.11431,0.01515
510.14994,0.01494
509.18557,0.01466
508.22121,0.01434
507.25684,0.01398
506.29247,0.01370
505.32811,0.01376
504.36374,0.01402
503.39937,0.01430
502.43501,0.01455
501.47064,0.01465
500.50627,0.01481
499.54191,0.01507
498.57754,0.01533
497.61317,0.01524
496.64881,0.01517
495.68444,0.01572
494.72007,0.01619
493.75571,0.01609
492.79134,0.01603
491.82698,0.01622
490.86261,0.01599
489.89824,0.01562
488.93388,0.01586
487.96951,0.01600
487.00514,0.01597
486.04078,0.01632
485.07641,0.01679
484.11204,0.01701
483.14768,0.01734
482.18331,0.01767
481.21894,0.01726
480.25458,0.01684
479.29021,0.01732
478.32584,0.01836
477.36148,0.01891
476.39711,0.01872
475.43274,0.01878
474.46838,0.01932
473.50401,0.01972
472.53964,0.01989
471.57528,0.02001
470.61091,0.02016
469.64654,0.02081
468.68218,0.02195
467.71781,0.02206
466.75344,0.02110
465.78908,0.02023
464.82471,0.01971
463.86034,0.01927
462.89598,0.01891
461.93161,0.01863
460.96724,0.01811
460.00288,0.01728
459.03851,0.01624
458.07414,0.01611
457.10978,0.01734
456.14541,0.01832
455.18104,0.01771
454.21668,0.01662
453.25231,0.01629
452.28794,0.01614
451.32358,0.01539
450.35921,0.01508
449.39484,0.01563
448.43048,0.01585
447.46611,0.01557
446.50174,0.01552
445.53738,0.01562
444.57301,0.01513
443.60864,0.01405
442.64428,0.01366
441.67991,0.01430
440.71554,0.01460
439.75118,0.01404
438.78681,0.01346
437.82244,0.01324
436.85808,0.01312
435.89371,0.01313
434.92934,0.01313
433.96498,0.01314
433.00061,0.01377
432.03624,0.01396
431.07188,0.01256
430.10751,0.01040
429.14315,0.00872
428.17878,0.00798
427.21441,0.00807
426.25005,0.00921
425.28568,0.01024
424.32131,0.00994
423.35695,0.00904
422.39258,0.00843
421.42821,0.00779
420.46385,0.00576
419.49948,0.00354
418.53511,0.00375
417.57075,0.00586
416.60638,0.00718
415.64201,0.00715
414.67765,0.00754
413.71328,0.00680
412.74891,0.00458
411.78455,0.00341
410.82018,0.00402
409.85581,0.00442
408.89145,0.00324
407.92708,0.00180
406.96271,0.00088
405.99835,0.00048
405.03398,0.00036
404.06961,0.00009
403.10525,0.00028
402.14088,0.00063
401.17651,0.00069
400.21215,0.00069
399.24778,0.00069
