1900.76660,0.00490
1899.80223,0.00477
1898.83787,0.00463
1897.87350,0.00450
1896.90913,0.00436
1895.94477,0.00422
1894.98040,0.00409
1894.01603,0.00396
1893.05167,0.00382
1892.08730,0.00368
1891.12293,0.00355
1890.15857,0.00341
1889.19420,0.00328
1888.22983,0.00314
1887.26547,0.00301
1886.30110,0.00288
1885.33673,0.00274
1884.37237,0.00260
1883.40800,0.00247
1882.44364,0.00233
1881.47927,0.00220
1880.51490,0.00207
1879.55054,0.00219
1878.58617,0.00213
1877.62180,0.00179
1876.65744,0.00142
1875.69307,0.00116
1874.72870,0.00106
1873.76434,0.00124
1872.79997,0.00150
1871.83560,0.00172
1870.87124,0.00254
1869.90687,0.00381
1868.94250,0.00422
1867.97814,0.00332
1867.01377,0.00213
1866.04940,0.00153
1865.08504,0.00115
1864.12067,0.00079
1863.15630,0.00054
1862.19194,0.00054
1861.22757,0.00061
1860.26320,0.00053
1859.29884,0.00034
1858.33447,0.00017
1857.37010,0.00010
1856.40574,0.00010
1855.44137,0.00015
1854.47700,0.00017
1853.51264,0.00011
1852.54827,0.00007
1851.58390,0.00017
1850.61954,0.00030
1849.65517,0.00028
1848.69080,0.00037
1847.72644,0.00040
1846.76207,0.00019
1845.79770,0.00110
1844.83334,0.00283
1843.86897,0.00297
1842.90460,0.00130
1841.94024,0.00003
1840.97587,-0.00001
1840.01150,0.00002
1839.04714,0.00014
1838.08277,0.00039
1837.11840,0.00040
1836.15404,0.00018
1835.18967,0.00002
1834.22530,0.00023
1833.26094,0.00039
1832.29657,0.00057
1831.33220,0.00159
1830.36784,0.00265
1829.40347,0.00246
1828.43910,0.00114
1827.47474,0.00060
1826.51037,0.00154
1825.54600,0.00232
1824.58164,0.00198
1823.61727,0.00109
1822.65290,0.00083
1821.68854,0.00091
1820.72417,0.00098
1819.75981,0.00112
1818.79544,0.00125
1817.83107,0.00127
1816.86671,0.00112
1815.90234,0.00094
1814.93797,0.00098
1813.97361,0.00118
1813.00924,0.00134
1812.04487,0.00155
1811.08051,0.00171
1810.11614,0.00155
1809.15177,0.00127
1808.18741,0.00117
1807.22304,0.00123
1806.25867,0.00131
1805.29431,0.00127
1804.32994,0.00119
1803.36557,0.00138
1802.40121,0.00174
1801.43684,0.00201
1800.47247,0.00217
1799.50811,0.00204
1798.54374,0.00171
1797.57937,0.00176
1796.61501,0.00216
1795.65064,0.00220
1794.68627,0.00219
1793.72191,0.00287
1792.75754,0.00343
1791.79317,0.00320
1790.82881,0.00260
1789.86444,0.00243
1788.90007,0.00251
1787.93571,0.00262
1786.97134,0.00285
1786.00697,0.00320
1785.04261,0.00338
1784.07824,0.00327
1783.11387,0.00329
1782.14951,0.00379
1781.18514,0.00425
1780.22077,0.00435
1779.25641,0.00429
1778.29204,0.00446
1777.32767,0.00500
1776.36331,0.00556
1775.39894,0.00588
1774.43457,0.00647
1773.47021,0.00783
1772.50584,0.00880
1771.54147,0.00845
1770.57711,0.00771
1769.61274,0.00812
1768.64837,0.00895
1767.68401,0.00918
1766.71964,0.00906
1765.75527,0.00932
1764.79091,0.00982
1763.82654,0.01053
1762.86217,0.01174
1761.89781,0.01242
1760.93344,0.01235
1759.96907,0.01232
1759.00471,0.01304
1758.04034,0.01413
1757.07597,0.01478
1756.11161,0.01500
1755.14724,0.01516
1754.18288,0.01565
1753.21851,0.01667
1752.25414,0.01814
1751.28978,0.01899
1750.32541,0.01909
1749.36104,0.01940
1748.39668,0.02003
1747.43231,0.02018
1746.46794,0.02019
1745.50358,0.02057
1744.53921,0.02137
1743.57484,0.02199
1742.61048,0.02221
1741.64611,0.02280
1740.68174,0.02392
1739.71738,0.02427
1738.75301,0.02389
1737.78864,0.02373
1736.82428,0.02430
1735.85991,0.02631
1734.89554,0.02880
1733.93118,0.02880
1732.96681,0.02653
1732.00244,0.02529
1731.03808,0.02595
1730.07371,0.02614
1729.10934,0.02574
1728.14498,0.02548
1727.18061,0.02559
1726.21624,0.02560
1725.25188,0.02564
1724.28751,0.02568
1723.32314,0.02550
1722.35878,0.02529
1721.39441,0.02517
1720.43004,0.02543
1719.46568,0.02680
1718.50131,0.02780
1717.53694,0.02692
1716.57258,0.02528
1715.60821,0.02488
1714.64384,0.02456
1713.67948,0.02356
1712.71511,0.02275
1711.75074,0.02260
1710.78638,0.02249
1709.82201,0.02216
1708.85764,0.02190
1707.89328,0.02204
1706.92891,0.02217
1705.96454,0.02185
1705.00018,0.02139
1704.03581,0.02081
1703.07144,0.02025
1702.10708,0.02202
1701.14271,0.02581
1700.17834,0.02576
1699.21398,0.02197
1698.24961,0.01922
1697.28524,0.02121
1696.32088,0.02232
1695.35651,0.02117
1694.39214,0.01917
1693.42778,0.01886
1692.46341,0.01927
1691.49905,0.01958
1690.53468,0.01982
1689.57031,0.02007
1688.60595,0.02019
1687.64158,0.02028
1686.67721,0.02106
1685.71285,0.02401
1684.74848,0.02631
1683.78411,0.02546
1682.81975,0.02305
1681.85538,0.02273
1680.89101,0.02375
1679.92665,0.02442
1678.96228,0.02472
1677.99791,0.02533
1677.03355,0.02690
1676.06918,0.02890
1675.10481,0.02952
1674.14045,0.02923
1673.17608,0.02989
1672.21171,0.03154
1671.24735,0.03306
1670.28298,0.03479
1669.31861,0.03615
1668.35425,0.03660
1667.38988,0.03700
1666.42551,0.03823
1665.46115,0.03959
1664.49678,0.04129
1663.53241,0.04316
1662.56805,0.04435
1661.60368,0.04502
1660.63931,0.04617
1659.67495,0.04778
1658.71058,0.04927
1657.74621,0.05067
1656.78185,0.05228
1655.81748,0.05448
1654.85311,0.05886
1653.88875,0.06500
1652.92438,0.06592
1651.96001,0.06257
1650.99565,0.06008
1650.03128,0.06239
1649.06691,0.06485
1648.10255,0.06702
1647.13818,0.06887
1646.17381,0.06943
1645.20945,0.06945
1644.24508,0.07000
1643.28071,0.07156
1642.31635,0.07300
1641.35198,0.07406
1640.38761,0.07516
1639.42325,0.07655
1638.45888,0.07815
1637.49451,0.08001
1636.53015,0.08253
1635.56578,0.08298
1634.60141,0.08176
1633.63705,0.08094
1632.67268,0.08216
1631.70831,0.08307
1630.74395,0.08344
1629.77958,0.08418
1628.81522,0.08486
1627.85085,0.08489
1626.88648,0.08429
1625.92212,0.08413
1624.95775,0.08519
1623.99338,0.08527
1623.02902,0.08414
1622.06465,0.08264
1621.10028,0.08222
1620.13592,0.08176
1619.17155,0.08129
1618.20718,0.08239
1617.24282,0.08188
1616.27845,0.07925
1615.31408,0.07625
1614.34972,0.07556
1613.38535,0.07498
1612.42098,0.07383
1611.45662,0.07292
1610.49225,0.07187
1609.52788,0.07073
1608.56352,0.06943
1607.59915,0.06832
1606.63478,0.06713
1605.67042,0.06595
1604.70605,0.06505
1603.74168,0.06404
1602.77732,0.06308
1601.81295,0.06207
1600.84858,0.06117
1599.88422,0.06018
1598.91985,0.05924
1597.95548,0.05846
1596.99112,0.05768
1596.02675,0.05705
1595.06238,0.05618
1594.09802,0.05527
1593.13365,0.05430
1592.16928,0.05344
1591.20492,0.05261
1590.24055,0.05167
1589.27618,0.05089
1588.31182,0.04999
1587.34745,0.04917
1586.38308,0.04821
1585.41872,0.04723
1584.45435,0.04623
1583.48998,0.04518
1582.52562,0.04424
1581.56125,0.04314
1580.59688,0.04219
1579.63252,0.04108
1578.66815,0.04024
1577.70378,0.04065
1576.73942,0.04009
1575.77505,0.03783
1574.81068,0.03508
1573.84632,0.03416
1572.88195,0.03336
1571.91758,0.03259
1570.95322,0.03265
1569.98885,0.03177
1569.02448,0.02967
1568.06012,0.02750
1567.09575,0.02691
1566.13139,0.02648
1565.16702,0.02551
1564.20265,0.02422
1563.23829,0.02305
1562.27392,0.02277
1561.30955,0.02392
1560.34519,0.02603
1559.38082,0.02684
1558.41645,0.02402
1557.45209,0.01970
1556.48772,0.01725
1555.52335,0.01761
1554.55899,0.01730
1553.59462,0.01577
1552.63025,0.01437
1551.66589,0.01434
1550.70152,0.01422
1549.73715,0.01336
1548.77279,0.01226
1547.80842,0.01156
1546.84405,0.01164
1545.87969,0.01167
1544.91532,0.01116
1543.95095,0.01071
1542.98659,0.01090
1542.02222,0.01107
1541.05785,0.01161
1540.09349,0.01216
1539.12912,0.01073
1538.16475,0.00802
1537.20039,0.00659
1536.23602,0.00665
1535.27165,0.00707
1534.30729,0.00729
1533.34292,0.00669
1532.37855,0.00556
1531.41419,0.00504
1530.44982,0.00507
1529.48545,0.00517
1528.52109,0.00512
1527.55672,0.00493
1526.59235,0.00507
1525.62799,0.00510
1524.66362,0.00478
1523.69925,0.00481
1522.73489,0.00579
1521.77052,0.00638
1520.80615,0.00538
1519.84179,0.00396
1518.87742,0.00389
1517.91305,0.00477
1516.94869,0.00482
1515.98432,0.00409
1515.01995,0.00359
1514.05559,0.00372
1513.09122,0.00404
1512.12685,0.00421
1511.16249,0.00432
1510.19812,0.00466
1509.23375,0.00532
1508.26939,0.00678
1507.30502,0.00846
1506.34065,0.00821
1505.37629,0.00612
1504.41192,0.00452
1503.44756,0.00455
1502.48319,0.00483
1501.51882,0.00496
1500.55446,0.00537
1499.59009,0.00590
1498.62572,0.00603
1497.66136,0.00631
1496.69699,0.00660
1495.73262,0.00642
1494.76826,0.00597
1493.80389,0.00620
1492.83952,0.00682
1491.87516,0.00764
1490.91079,0.00838
1489.94642,0.00841
1488.98206,0.00825
1488.01769,0.00848
1487.05332,0.00868
1486.08896,0.00863
1485.12459,0.00878
1484.16022,0.00922
1483.19586,0.00965
1482.23149,0.01010
1481.26712,0.01053
1480.30276,0.01092
1479.33839,0.01133
1478.37402,0.01196
1477.40966,0.01292
1476.44529,0.01349
1475.48092,0.01380
1474.51656,0.01467
1473.55219,0.01603
1472.58782,0.01659
1471.62346,0.01621
1470.65909,0.01602
1469.69472,0.01645
1468.73036,0.01718
1467.76599,0.01779
1466.80162,0.01862
1465.83726,0.01970
1464.87289,0.02009
1463.90852,0.02007
1462.94416,0.02032
1461.97979,0.02109
1461.01542,0.02184
1460.05106,0.02272
1459.08669,0.02405
1458.12232,0.02572
1457.15796,0.02649
1456.19359,0.02591
1455.22922,0.02517
1454.26486,0.02561
1453.30049,0.02656
1452.33612,0.02734
1451.37176,0.02779
1450.40739,0.02835
1449.44302,0.02934
1448.47866,0.03028
1447.51429,0.03066
1446.54992,0.03096
1445.58556,0.03172
1444.62119,0.03262
1443.65682,0.03346
1442.69246,0.03427
1441.72809,0.03511
1440.76373,0.03586
1439.79936,0.03653
1438.83499,0.03761
1437.87063,0.03941
1436.90626,0.04033
1435.94189,0.04009
1434.97753,0.03999
1434.01316,0.04095
1433.04879,0.04179
1432.08443,0.04249
1431.12006,0.04339
1430.15569,0.04409
1429.19133,0.04450
1428.22696,0.04515
1427.26259,0.04605
1426.29823,0.04702
1425.33386,0.04805
1424.36949,0.04903
1423.40513,0.04976
1422.44076,0.05048
1421.47639,0.05200
1420.51203,0.05428
1419.54766,0.05566
1418.58329,0.05597
1417.61893,0.05633
1416.65456,0.05761
1415.69019,0.05882
1414.72583,0.05998
1413.76146,0.06115
1412.79709,0.06229
1411.83273,0.06342
1410.86836,0.06450
1409.90399,0.06552
1408.93963,0.06650
1407.97526,0.06744
1407.01089,0.06847
1406.04653,0.06957
1405.08216,0.07022
1404.11779,0.07048
1403.15343,0.07086
1402.18906,0.07142
1401.22469,0.07210
1400.26033,0.07284
1399.29596,0.07298
1398.33159,0.07253
1397.36723,0.07241
1396.40286,0.07309
1395.43849,0.07334
1394.47413,0.07269
1393.50976,0.07191
1392.54539,0.07180
1391.58103,0.07191
1390.61666,0.07165
1389.65229,0.07155
1388.68793,0.07175
1387.72356,0.07141
1386.75919,0.07048
1385.79483,0.06976
1384.83046,0.06960
1383.86609,0.06936
1382.90173,0.06897
1381.93736,0.06863
1380.97299,0.06837
1380.00863,0.06819
1379.04426,0.06795
1378.07989,0.06763
1377.11553,0.06739
1376.15116,0.06741
1375.18680,0.06741
1374.22243,0.06690
1373.25806,0.06617
1372.29370,0.06585
1371.32933,0.06592
1370.36496,0.06594
1369.40060,0.06572
1368.43623,0.06540
1367.47186,0.06522
1366.50750,0.06513
1365.54313,0.06514
1364.57876,0.06530
1363.61440,0.06531
1362.65003,0.06496
1361.68566,0.06452
1360.72130,0.06428
1359.75693,0.06403
1358.79256,0.06378
1357.82820,0.06353
1356.86383,0.06324
1355.89946,0.06294
1354.93510,0.06255
1353.97073,0.06208
1353.00636,0.06162
1352.04200,0.06118
1351.07763,0.06068
1350.11326,0.06015
1349.14890,0.05961
1348.18453,0.05910
1347.22016,0.05862
1346.25580,0.05813
1345.29143,0.05761
1344.32706,0.05708
1343.36270,0.05659
1342.39833,0.05620
1341.43396,0.05591
1340.46960,0.05547
1339.50523,0.05479
1338.54086,0.05419
1337.57650,0.05383
1336.61213,0.05351
1335.64776,0.05308
1334.68340,0.05275
1333.71903,0.05255
1332.75466,0.05229
1331.79030,0.05194
1330.82593,0.05160
1329.86156,0.05132
1328.89720,0.05108
1327.93283,0.05084
1326.96846,0.05057
1326.00410,0.05030
1325.03973,0.05003
1324.07536,0.04972
1323.11100,0.04938
1322.14663,0.04907
1321.18226,0.04882
1320.21790,0.04857
1319.25353,0.04818
1318.28916,0.04769
1317.32480,0.04724
1316.36043,0.04681
1315.39606,0.04635
1314.43170,0.04591
1313.46733,0.04546
1312.50297,0.04499
1311.53860,0.04454
1310.57423,0.04410
1309.60987,0.04366
1308.64550,0.04323
1307.68113,0.04284
1306.71677,0.04248
1305.75240,0.04206
1304.78803,0.04167
1303.82367,0.04134
1302.85930,0.04109
1301.89493,0.04086
1300.93057,0.04062
1299.96620,0.04036
1299.00183,0.04008
1298.03747,0.03986
1297.07310,0.03965
1296.10873,0.03944
1295.14437,0.03925
1294.18000,0.03913
1293.21563,0.03904
1292.25127,0.03891
1291.28690,0.03874
1290.32253,0.03859
1289.35817,0.03844
1288.39380,0.03826
1287.42943,0.03814
1286.46507,0.03813
1285.50070,0.03809
1284.53633,0.03792
1283.57197,0.03773
1282.60760,0.03765
1281.64323,0.03762
1280.67887,0.03760
1279.71450,0.03756
1278.75013,0.03746
1277.78577,0.03732
1276.82140,0.03722
1275.85703,0.03715
1274.89267,0.03707
1273.92830,0.03701
1272.96393,0.03703
1271.99957,0.03704
1271.03520,0.03699
1270.07083,0.03695
1269.10647,0.03694
1268.14210,0.03698
1267.17773,0.03701
1266.21337,0.03699
1265.24900,0.03692
1264.28463,0.03688
1263.32027,0.03690
1262.35590,0.03699
1261.39153,0.03707
1260.42717,0.03708
1259.46280,0.03705
1258.49843,0.03709
1257.53407,0.03722
1256.56970,0.03731
1255.60533,0.03733
1254.64097,0.03734
1253.67660,0.03737
1252.71223,0.03739
1251.74787,0.03740
1250.78350,0.03742
1249.81914,0.03750
1248.85477,0.03765
1247.89040,0.03780
1246.92604,0.03789
1245.96167,0.03791
1244.99730,0.03787
1244.03294,0.03787
1243.06857,0.03791
1242.10420,0.03793
1241.13984,0.03795
1240.17547,0.03802
1239.21110,0.03810
1238.24674,0.03814
1237.28237,0.03816
1236.31800,0.03819
1235.35364,0.03816
1234.38927,0.03809
1233.42490,0.03804
1232.46054,0.03802
1231.49617,0.03797
1230.53180,0.03791
1229.56744,0.03791
1228.60307,0.03791
1227.63870,0.03783
1226.67434,0.03772
1225.70997,0.03769
1224.74560,0.03761
1223.78124,0.03740
1222.81687,0.03720
1221.85250,0.03710
1220.88814,0.03705
1219.92377,0.03696
1218.95940,0.03684
1217.99504,0.03672
1217.03067,0.03660
1216.06630,0.03646
1215.10194,0.03634
1214.13757,0.03624
1213.17320,0.03613
1212.20884,0.03598
1211.24447,0.03578
1210.28010,0.03562
1209.31574,0.03554
1208.35137,0.03542
1207.38700,0.03521
1206.42264,0.03499
1205.45827,0.03486
1204.49390,0.03475
1203.52954,0.03455
1202.56517,0.03437
1201.60080,0.03424
1200.63644,0.03409
1199.67207,0.03387
1198.70770,0.03364
1197.74334,0.03347
1196.77897,0.03331
1195.81460,0.03319
1194.85024,0.03309
1193.88587,0.03301
1192.92150,0.03292
1191.95714,0.03279
1190.99277,0.03266
1190.02840,0.03259
1189.06404,0.03256
1188.09967,0.03249
1187.13531,0.03236
1186.17094,0.03227
1185.20657,0.03226
1184.24221,0.03228
1183.27784,0.03223
1182.31347,0.03214
1181.34911,0.03209
1180.38474,0.03210
1179.42037,0.03215
1178.45601,0.03220
1177.49164,0.03221
1176.52727,0.03223
1175.56291,0.03226
1174.59854,0.03227
1173.63417,0.03223
1172.66981,0.03221
1171.70544,0.03225
1170.74107,0.03224
1169.77671,0.03220
1168.81234,0.03228
1167.84797,0.03244
1166.88361,0.03255
1165.91924,0.03261
1164.95487,0.03271
1163.99051,0.03284
1163.02614,0.03291
1162.06177,0.03296
1161.09741,0.03301
1160.13304,0.03306
1159.16867,0.03313
1158.20431,0.03323
1157.23994,0.03335
1156.27557,0.03346
1155.31121,0.03353
1154.34684,0.03362
1153.38247,0.03379
1152.41811,0.03400
1151.45374,0.03415
1150.48937,0.03429
1149.52501,0.03440
1148.56064,0.03446
1147.59627,0.03456
1146.63191,0.03477
1145.66754,0.03507
1144.70317,0.03536
1143.73881,0.03563
1142.77444,0.03585
1141.81007,0.03602
1140.84571,0.03616
1139.88134,0.03634
1138.91697,0.03657
1137.95261,0.03678
1136.98824,0.03698
1136.02387,0.03725
1135.05951,0.03754
1134.09514,0.03780
1133.13077,0.03806
1132.16641,0.03837
1131.20204,0.03868
1130.23767,0.03896
1129.27331,0.03925
1128.30894,0.03952
1127.34457,0.03982
1126.38021,0.04018
1125.41584,0.04047
1124.45148,0.04068
1123.48711,0.04094
1122.52274,0.04128
1121.55838,0.04157
1120.59401,0.04180
1119.62964,0.04208
1118.66528,0.04238
1117.70091,0.04266
1116.73654,0.04298
1115.77218,0.04332
1114.80781,0.04363
1113.84344,0.04392
1112.87908,0.04418
1111.91471,0.04434
1110.95034,0.04447
1109.98598,0.04469
1109.02161,0.04493
1108.05724,0.04520
1107.09288,0.04559
1106.12851,0.04600
1105.16414,0.04630
1104.19978,0.04649
1103.23541,0.04669
1102.27104,0.04691
1101.30668,0.04713
1100.34231,0.04741
1099.37794,0.04774
1098.41358,0.04815
1097.44921,0.04856
1096.48484,0.04885
1095.52048,0.04903
1094.55611,0.04934
1093.59174,0.04980
1092.62738,0.05014
1091.66301,0.05026
1090.69864,0.05033
1089.73428,0.05054
1088.76991,0.05089
1087.80554,0.05120
1086.84118,0.05130
1085.87681,0.05127
1084.91244,0.05127
1083.94808,0.05138
1082.98371,0.05152
1082.01934,0.05152
1081.05498,0.05139
1080.09061,0.05130
1079.12624,0.05132
1078.16188,0.05129
1077.19751,0.05117
1076.23314,0.05107
1075.26878,0.05095
1074.30441,0.05081
1073.34004,0.05069
1072.37568,0.05058
1071.41131,0.05036
1070.44694,0.05001
1069.48258,0.04969
1068.51821,0.04953
1067.55384,0.04937
1066.58948,0.04906
1065.62511,0.04874
1064.66074,0.04846
1063.69638,0.04815
1062.73201,0.04785
1061.76765,0.04763
1060.80328,0.04741
1059.83891,0.04707
1058.87455,0.04659
1057.91018,0.04607
1056.94581,0.04568
1055.98145,0.04537
1055.01708,0.04501
1054.05271,0.04456
1053.08835,0.04408
1052.12398,0.04363
1051.15961,0.04319
1050.19525,0.04269
1049.23088,0.04222
1048.26651,0.04178
1047.30215,0.04130
1046.33778,0.04073
1045.37341,0.04021
1044.40905,0.03973
1043.44468,0.03912
1042.48031,0.03839
1041.51595,0.03777
1040.55158,0.03735
1039.58721,0.03690
1038.62285,0.03624
1037.65848,0.03561
1036.69411,0.03517
1035.72975,0.03476
1034.76538,0.03416
1033.80101,0.03346
1032.83665,0.03286
1031.87228,0.03240
1030.90791,0.03199
1029.94355,0.03148
1028.97918,0.03081
1028.01481,0.03015
1027.05045,0.02968
1026.08608,0.02932
1025.12171,0.02884
1024.15735,0.02824
1023.19298,0.02775
1022.22861,0.02738
1021.26425,0.02697
1020.29988,0.02654
1019.33551,0.02620
1018.37115,0.02584
1017.40678,0.02537
1016.44241,0.02497
1015.47805,0.02474
1014.51368,0.02454
1013.54931,0.02429
1012.58495,0.02404
1011.62058,0.02379
1010.65621,0.02354
1009.69185,0.02332
1008.72748,0.02320
1007.76311,0.02315
1006.79875,0.02312
1005.83438,0.02303
1004.87001,0.02286
1003.90565,0.02270
1002.94128,0.02263
1001.97691,0.02269
1001.01255,0.02274
1000.04818,0.02264
999.08382,0.02249
998.11945,0.02240
997.15508,0.02239
996.19072,0.02240
995.22635,0.02240
994.26198,0.02235
993.29762,0.02231
992.33325,0.02237
991.36888,0.02244
990.40452,0.02244
989.44015,0.02241
988.47578,0.02236
987.51142,0.02230
986.54705,0.02225
985.58268,0.02224
984.61832,0.02226
983.65395,0.02222
982.68958,0.02215
981.72522,0.02209
980.76085,0.02200
979.79648,0.02186
978.83212,0.02176
977.86775,0.02166
976.90338,0.02151
975.93902,0.02136
974.97465,0.02125
974.01028,0.02114
973.04592,0.02101
972.08155,0.02083
971.11718,0.02062
970.15282,0.02044
969.18845,0.02029
968.22408,0.02009
967.25972,0.01985
966.29535,0.01969
965.33098,0.01965
964.36662,0.01961
963.40225,0.01948
962.43788,0.01924
961.47352,0.01900
960.50915,0.01878
959.54478,0.01863
958.58042,0.01854
957.61605,0.01845
956.65168,0.01828
955.68732,0.01804
954.72295,0.01781
953.75858,0.01765
952.79422,0.01752
951.82985,0.01741
950.86548,0.01728
949.90112,0.01715
948.93675,0.01704
947.97238,0.01689
947.00802,0.01670
946.04365,0.01652
945.07928,0.01642
944.11492,0.01637
943.15055,0.01635
942.18618,0.01636
941.22182,0.01632
940.25745,0.01612
939.29308,0.01589
938.32872,0.01574
937.36435,0.01559
936.39998,0.01538
935.43562,0.01524
934.47125,0.01518
933.50689,0.01507
932.54252,0.01486
931.57815,0.01470
930.61379,0.01468
929.64942,0.01475
928.68505,0.01474
927.72069,0.01467
926.75632,0.01467
925.79195,0.01471
924.82759,0.01471
923.86322,0.01467
922.89885,0.01461
921.93449,0.01451
920.97012,0.01440
920.00575,0.01430
919.04139,0.01428
918.07702,0.01430
917.11265,0.01429
916.14829,0.01420
915.18392,0.01406
914.21955,0.01384
913.25519,0.01355
912.29082,0.01327
911.32645,0.01301
910.36209,0.01272
909.39772,0.01237
908.43335,0.01200
907.46899,0.01163
906.50462,0.01119
905.54025,0.01072
904.57589,0.01030
903.61152,0.00999
902.64715,0.00977
901.68279,0.00955
900.71842,0.00924
899.75405,0.00890
898.78969,0.00861
897.82532,0.00834
896.86095,0.00813
895.89659,0.00792
894.93222,0.00763
893.96785,0.00736
893.00349,0.00724
892.03912,0.00715
891.07475,0.00696
890.11039,0.00672
889.14602,0.00645
888.18165,0.00626
887.21729,0.00618
886.25292,0.00608
885.28855,0.00595
884.32419,0.00584
883.35982,0.00568
882.39545,0.00550
881.43109,0.00540
880.46672,0.00541
879.50235,0.00540
878.53799,0.00529
877.57362,0.00515
876.60925,0.00508
875.64489,0.00512
874.68052,0.00513
873.71615,0.00507
872.75179,0.00507
871.78742,0.00513
870.82306,0.00511
869.85869,0.00494
868.89432,0.00481
867.92996,0.00478
866.96559,0.00476
866.00122,0.00473
865.03686,0.00478
864.07249,0.00484
863.10812,0.00473
862.14376,0.00454
861.17939,0.00448
860.21502,0.00457
859.25066,0.00465
858.28629,0.00461
857.32192,0.00447
856.35756,0.00431
855.39319,0.00423
854.42882,0.00422
853.46446,0.00422
852.50009,0.00423
851.53572,0.00426
850.57136,0.00418
849.60699,0.00403
848.64262,0.00390
847.67826,0.00382
846.71389,0.00376
845.74952,0.00382
844.78516,0.00393
843.82079,0.00393
842.85642,0.00381
841.89206,0.00367
840.92769,0.00352
839.96332,0.00336
838.99896,0.00328
838.03459,0.00334
837.07022,0.00341
836.10586,0.00337
835.14149,0.00333
834.17712,0.00344
833.21276,0.00364
832.24839,0.00373
831.28402,0.00372
830.31966,0.00374
829.35529,0.00379
828.39092,0.00381
827.42656,0.00377
826.46219,0.00370
825.49782,0.00355
824.53346,0.00329
823.56909,0.00312
822.60472,0.00313
821.64036,0.00312
820.67599,0.00291
819.71162,0.00264
818.74726,0.00243
817.78289,0.00226
816.81852,0.00213
815.85416,0.00205
814.88979,0.00195
813.92542,0.00188
812.96106,0.00192
811.99669,0.00201
811.03232,0.00207
810.06796,0.00201
809.10359,0.00187
808.13923,0.00180
807.17486,0.00180
806.21049,0.00169
805.24613,0.00151
804.28176,0.00144
803.31739,0.00141
802.35303,0.00137
801.38866,0.00129
800.42429,0.00123
799.45993,0.00126
798.49556,0.00124
797.53119,0.00104
796.56683,0.00089
795.60246,0.00098
794.63809,0.00103
793.67373,0.00088
792.70936,0.00072
791.74499,0.00059
790.78063,0.00044
789.81626,0.00037
788.85189,0.00040
787.88753,0.00037
786.92316,0.00025
785.95879,0.00026
784.99443,0.00044
784.03006,0.00054
783.06569,0.00043
782.10133,0.00028
781.13696,0.00023
780.17259,0.00021
779.20823,0.00017
778.24386,0.00017
777.27949,0.00024
776.31513,0.00036
775.35076,0.00046
774.38639,0.00043
773.42203,0.00024
772.45766,0.00006
771.49329,0.00002
770.52893,0.00009
769.56456,0.00016
768.60019,0.00017
767.63583,0.00011
766.67146,0.00004
765.70709,-0.00001
764.74273,0.00002
763.77836,0.00008
762.81399,0.00013
761.84963,0.00014
760.88526,0.00010
759.92089,0.00008
758.95653,0.00012
757.99216,0.00015
757.02779,0.00012
756.06343,0.00004
755.09906,-0.00001
754.13469,0.00004
753.17033,0.00015
752.20596,0.00018
751.24159,0.00010
750.27723,0.00003
749.31286,0.00006
748.34849,0.00013
747.38413,0.00020
746.41976,0.00030
745.45540,0.00039
744.49103,0.00042
743.52666,0.00039
742.56230,0.00037
741.59793,0.00042
740.63356,0.00051
739.66920,0.00059
738.70483,0.00057
737.74046,0.00049
736.77610,0.00045
735.81173,0.00052
734.84736,0.00066
733.88300,0.00080
732.91863,0.00094
731.95426,0.00101
730.98990,0.00096
730.02553,0.00087
729.06116,0.00095
728.09680,0.00119
727.13243,0.00140
726.16806,0.00146
725.20370,0.00147
724.23933,0.00154
723.27496,0.00163
722.31060,0.00176
721.34623,0.00197
720.38186,0.00213
719.41750,0.00215
718.45313,0.00215
717.48876,0.00225
716.52440,0.00233
715.56003,0.00232
714.59566,0.00239
713.63130,0.00260
712.66693,0.00278
711.70256,0.00292
710.73820,0.00305
709.77383,0.00311
708.80946,0.00312
707.84510,0.00319
706.88073,0.00328
705.91636,0.00334
704.95200,0.00334
703.98763,0.00328
703.02326,0.00328
702.05890,0.00348
701.09453,0.00368
700.13016,0.00366
699.16580,0.00352
698.20143,0.00347
697.23706,0.00354
696.27270,0.00359
695.30833,0.00358
694.34396,0.00356
693.37960,0.00352
692.41523,0.00351
691.45086,0.00361
690.48650,0.00375
689.52213,0.00367
688.55776,0.00337
687.59340,0.00314
686.62903,0.00307
685.66466,0.00303
684.70030,0.00296
683.73593,0.00294
682.77157,0.00293
681.80720,0.00280
680.84283,0.00260
679.87847,0.00245
678.91410,0.00238
677.94973,0.00234
676.98537,0.00235
676.02100,0.00236
675.05663,0.00224
674.09227,0.00208
673.12790,0.00195
672.16353,0.00194
671.19917,0.00205
670.23480,0.00277
669.27043,0.00699
668.30607,0.00916
667.34170,0.00689
666.37733,0.00235
665.41297,0.00161
664.44860,0.00200
663.48423,0.00224
662.51987,0.00249
661.55550,0.00267
660.59113,0.00260
659.62677,0.00252
658.66240,0.00266
657.69803,0.00284
656.73367,0.00280
655.76930,0.00273
654.80493,0.00277
653.84057,0.00280
652.87620,0.00279
651.91183,0.00283
650.94747,0.00296
649.98310,0.00315
649.01873,0.00319
648.05437,0.00306
647.09000,0.00297
646.12563,0.00303
645.16127,0.00311
644.19690,0.00309
643.23253,0.00315
642.26817,0.00340
641.30380,0.00371
640.33943,0.00381
639.37507,0.00359
638.41070,0.00333
637.44633,0.00332
636.48197,0.00348
635.51760,0.00361
634.55323,0.00369
633.58887,0.00386
632.62450,0.00396
631.66013,0.00382
630.69577,0.00371
629.73140,0.00379
628.76703,0.00392
627.80267,0.00387
626.83830,0.00376
625.87393,0.00375
624.90957,0.00383
623.94520,0.00398
622.98083,0.00392
622.01647,0.00379
621.05210,0.00388
620.08774,0.00408
619.12337,0.00420
618.15900,0.00423
617.19464,0.00415
616.23027,0.00392
615.26590,0.00385
614.30154,0.00400
613.33717,0.00397
612.37280,0.00370
611.40844,0.00352
610.44407,0.00363
609.47970,0.00383
608.51534,0.00389
607.55097,0.00373
606.58660,0.00346
605.62224,0.00331
604.65787,0.00330
603.69350,0.00335
602.72914,0.00331
601.76477,0.00325
600.80040,0.00321
599.83604,0.00320
598.87167,0.00322
597.90730,0.00312
596.94294,0.00298
595.97857,0.00308
595.01420,0.00336
594.04984,0.00350
593.08547,0.00329
592.12110,0.00299
591.15674,0.00287
590.19237,0.00306
589.22800,0.00335
588.26364,0.00347
587.29927,0.00348
586.33490,0.00331
585.37054,0.00290
584.40617,0.00249
583.44180,0.00241
582.47744,0.00259
581.51307,0.00268
580.54870,0.00262
579.58434,0.00241
578.61997,0.00230
577.65560,0.00250
576.69124,0.00278
575.72687,0.00280
574.76250,0.00258
573.79814,0.00237
572.83377,0.00229
571.86940,0.00227
570.90504,0.00220
569.94067,0.00215
568.97630,0.00226
568.01194,0.00239
567.04757,0.00239
566.08320,0.00219
565.11884,0.00196
564.15447,0.00195
563.19010,0.00215
562.22574,0.00243
561.26137,0.00261
560.29700,0.00252
559.33264,0.00213
558.36827,0.00171
557.40390,0.00172
556.43954,0.00204
555.47517,0.00224
554.51081,0.00210
553.54644,0.00178
552.58207,0.00168
551.61771,0.00183
550.65334,0.00202
549.68897,0.00209
548.72461,0.00214
547.76024,0.00226
546.79587,0.00219
545.83151,0.00205
544.86714,0.00204
543.90277,0.00211
542.93841,0.00212
541.97404,0.00206
541.00967,0.00199
540.04531,0.00183
539.08094,0.00173
538.11657,0.00173
537.15221,0.00181
536.18784,0.00212
535.22347,0.00246
534.25911,0.00247
533.29474,0.00210
532.33037,0.00183
531.36601,0.00191
530.40164,0.00201
529.43727,0.00181
528.47291,0.00150
527.50854,0.00163
526.54417,0.00194
525.57981,0.00199
524.61544,0.00199
523.65107,0.00185
522.68671,0.00140
521.72234,0.00121
520.75797,0.00177
519.79361,0.00226
518.82924,0.00200
517.86487,0.00166
516.90051,0.00176
515.93614,0.00178
514.97177,0.00136
514.00741,0.00106
513.04304,0.00120
512.07867,0.00131
511.11431,0.00129
510.14994,0.00147
509.18557,0.00182
508.22121,0.00203
507.25684,0.00212
506.29247,0.00214
505.32811,0.00189
504.36374,0.00157
503.39937,0.00164
502.43501,0.00206
501.47064,0.00216
500.50627,0.00174
499.54191,0.00133
498.57754,0.00129
497.61317,0.00160
496.64881,0.00165
495.68444,0.00135
494.72007,0.00143
493.75571,0.00212
492.79134,0.00272
491.82698,0.00252
490.86261,0.00185
489.89824,0.00141
488.93388,0.00159
487.96951,0.00213
487.00514,0.00246
486.04078,0.00280
485.07641,0.00336
484.11204,0.00329
483.14768,0.00227
482.18331,0.00140
481.21894,0.00154
480.25458,0.00205
479.29021,0.00242
478.32584,0.00282
477.36148,0.00316
476.39711,0.00300
475.43274,0.00238
474.46838,0.00235
473.50401,0.00351
472.53964,0.00454
471.57528,0.00400
470.61091,0.00246
469.64654,0.00218
468.68218,0.00304
467.71781,0.00299
466.75344,0.00190
465.78908,0.00143
464.82471,0.00186
463.86034,0.00192
462.89598,0.00155
461.93161,0.00154
460.96724,0.00161
460.00288,0.00209
459.03851,0.00470
458.07414,0.00690
457.10978,0.00584
456.14541,0.00288
455.18104,0.00176
454.21668,0.00220
453.25231,0.00263
452.28794,0.00259
451.32358,0.00187
450.35921,0.00111
449.39484,0.00088
448.43048,0.00094
447.46611,0.00136
446.50174,0.00170
445.53738,0.00145
444.57301,0.00122
443.60864,0.00215
442.64428,0.00337
441.67991,0.00272
440.71554,0.00114
439.75118,0.00062
438.78681,0.00073
437.82244,0.00092
436.85808,0.00177
435.89371,0.00248
434.92934,0.00157
433.96498,0.00029
433.00061,0.00026
432.03624,0.00046
431.07188,0.00024
430.10751,0.00051
429.14315,0.00187
428.17878,0.00254
427.21441,0.00153
426.25005,0.00047
425.28568,0.00020
424.32131,0.00096
423.35695,0.00226
422.39258,0.00344
421.42821,0.00529
420.46385,0.00916
419.49948,0.01332
418.53511,0.01264
417.57075,0.00736
416.60638,0.00277
415.64201,0.00093
414.67765,0.00040
413.71328,0.00033
412.74891,0.00103
411.78455,0.00166
410.82018,0.00105
409.85581,0.00040
408.89145,-0.00000
407.92708,0.00002
406.96271,0.00044
405.99835,0.00060
405.03398,0.00052
404.06961,0.00017
403.10525,0.00022
402.14088,0.00010
401.17651,-0.00002
400.21215,-0.00002
399.24778,-0.00002
